Oxysoft export of,C:\Documents and Settings\fsepulv\Desktop\TFMP01,,,,,,,,,,,,,,,,,,,,,,,,
Export date,2010-07-19 22:00,,,,,,,,,,,,,,,,,,,,,,,,
Datafile date,2010-05-07 14:55,,,,,,,,,,,,,,,,,,,,,,,,
,,,,,,,,,,,,,,,,,,,,,,,,,
Datafile sample rate,2,Hz,,,,,,,,,,,,,,,,,,,,,,,
Datafile duration,348,s,,,,,,,,,,,,,,,,,,,,,,,
Datafile total number of samples,696,,,,,,,,,,,,,,,,,,,,,,,,
,,,,,,,,,,,,,,,,,,,,,,,,,
Description,,,,,,,,,,,,,,,,,,,,,,,,,
Optodetemplate,24 channel square (split),,,,,,,,,,,,,,,,,,,,,,,,
OptodeDistance,35,,,,,,,,,,,,,,,,,,,,,,,,
DPF,6.61,,,,,,,,,,,,,,,,,,,,,,,,
,,,,,,,,,,,,,,,,,,,,,,,,,
Device ids,69,63,,,,,,,,,,,,,,,,,,,,,,,
# Receivers,4,,,,,,,,,,,,,,,,,,,,,,,,
# Lasers,16,,,,,,,,,,,,,,,,,,,,,,,,
# ADC,16,,,,,,,,,,,,,,,,,,,,,,,,
Laser wavelengths,,,,,,,,,,,,,,,,,,,,,,,,,
Laser 1,860,nm,,,,,,,,,,,,,,,,,,,,,,,
Laser 2,765,nm,,,,,,,,,,,,,,,,,,,,,,,
Laser 3,860,nm,,,,,,,,,,,,,,,,,,,,,,,
Laser 4,765,nm,,,,,,,,,,,,,,,,,,,,,,,
Laser 5,860,nm,,,,,,,,,,,,,,,,,,,,,,,
Laser 6,765,nm,,,,,,,,,,,,,,,,,,,,,,,
Laser 7,860,nm,,,,,,,,,,,,,,,,,,,,,,,
Laser 8,765,nm,,,,,,,,,,,,,,,,,,,,,,,
Laser 9,857,nm,,,,,,,,,,,,,,,,,,,,,,,
Laser 10,765,nm,,,,,,,,,,,,,,,,,,,,,,,
Laser 11,857,nm,,,,,,,,,,,,,,,,,,,,,,,
Laser 12,765,nm,,,,,,,,,,,,,,,,,,,,,,,
Laser 13,857,nm,,,,,,,,,,,,,,,,,,,,,,,
Laser 14,765,nm,,,,,,,,,,,,,,,,,,,,,,,
Laser 15,857,nm,,,,,,,,,,,,,,,,,,,,,,,
Laser 16,765,nm,,,,,,,,,,,,,,,,,,,,,,,
,,,,,,,,,,,,,,,,,,,,,,,,,
Export sample rate,2,Hz,,,,,,,,,,,,,,,,,,,,,,,
,,,,,,,,,,,,,,,,,,,,,,,,,
Legend,,,,,,,,,,,,,,,,,,,,,,,,,
Column,Trace (Measurement),,,,,,,,,,,,,,,,,,,,,,,,
1,(Sample number),,,,,,,,,,,,,,,,,,,,,,,,
2,Rx1a - Tx1 O2Hb (TFMP01),,,,,,,,,,,,,,,,,,,,,,,,
3,Rx1a - Tx1 HHb (TFMP01),,,,,,,,,,,,,,,,,,,,,,,,
4,Rx1a - Tx1 HbDiff (TFMP01),,,,,,,,,,,,,,,,,,,,,,,,
5,Rx1a - Tx3 O2Hb (TFMP01),,,,,,,,,,,,,,,,,,,,,,,,
6,Rx1a - Tx3 HHb (TFMP01),,,,,,,,,,,,,,,,,,,,,,,,
7,Rx1a - Tx3 HbDiff (TFMP01),,,,,,,,,,,,,,,,,,,,,,,,
8,Rx2a - Tx2 O2Hb (TFMP01),,,,,,,,,,,,,,,,,,,,,,,,
9,Rx2a - Tx2 HHb (TFMP01),,,,,,,,,,,,,,,,,,,,,,,,
10,Rx2a - Tx2 HbDiff (TFMP01),,,,,,,,,,,,,,,,,,,,,,,,
11,Rx2a - Tx4 O2Hb (TFMP01),,,,,,,,,,,,,,,,,,,,,,,,
12,Rx2a - Tx4 HHb (TFMP01),,,,,,,,,,,,,,,,,,,,,,,,
13,Rx2a - Tx4 HbDiff (TFMP01),,,,,,,,,,,,,,,,,,,,,,,,
14,Rx3b - Tx6 O2Hb (TFMP01),,,,,,,,,,,,,,,,,,,,,,,,
15,Rx3b - Tx6 HHb (TFMP01),,,,,,,,,,,,,,,,,,,,,,,,
16,Rx3b - Tx6 HbDiff (TFMP01),,,,,,,,,,,,,,,,,,,,,,,,
17,Rx3b - Tx8 O2Hb (TFMP01),,,,,,,,,,,,,,,,,,,,,,,,
18,Rx3b - Tx8 HHb (TFMP01),,,,,,,,,,,,,,,,,,,,,,,,
19,Rx3b - Tx8 HbDiff (TFMP01),,,,,,,,,,,,,,,,,,,,,,,,
20,Rx4b - Tx5 O2Hb (TFMP01),,,,,,,,,,,,,,,,,,,,,,,,
21,Rx4b - Tx5 HHb (TFMP01),,,,,,,,,,,,,,,,,,,,,,,,
22,Rx4b - Tx5 HbDiff (TFMP01),,,,,,,,,,,,,,,,,,,,,,,,
23,Rx4b - Tx7 O2Hb (TFMP01),,,,,,,,,,,,,,,,,,,,,,,,
24,Rx4b - Tx7 HHb (TFMP01),,,,,,,,,,,,,,,,,,,,,,,,
25,Rx4b - Tx7 HbDiff (TFMP01),,,,,,,,,,,,,,,,,,,,,,,,
26,(Event),,,,,,,,,,,,,,,,,,,,,,,,
,,,,,,,,,,,,,,,,,,,,,,,,,
1,2,3,4,5,6,7,8,9,10,11,12,13,14,15,16,17,18,19,20,21,22,23,24,25,26
0,71.2230072,51.9110641,19.311945,40.4167442,74.9025879,-34.4858437,52.4024544,53.5007744,-1.0983183,68.9105911,49.0433693,19.8672199,50.6106339,53.5431709,-2.9325359,70.8040237,49.415432,21.3885937,75.1151352,51.7563248,23.3588066,71.9355927,52.6706543,19.2649384,
1,71.0699539,52.1426773,18.9272728,40.0432816,75.4677277,-35.4244461,51.2490654,54.0675545,-2.8184874,67.7518082,49.3880157,18.3637924,49.3747787,54.7209473,-5.346168,70.3513107,48.8297997,21.5215111,74.6009216,51.4129868,23.1879311,72.720192,51.8174782,20.9027138,
2,70.9423676,52.0241661,18.9182053,40.3069305,74.946846,-34.6399155,52.2316284,53.5696182,-1.3379864,67.8620148,49.2212563,18.6407566,49.7328606,54.1823997,-4.4495401,70.3282242,49.8722687,20.4559555,73.2723846,52.6892853,20.5831032,73.0052567,52.0560493,20.9492092,
3,70.7638321,52.6059036,18.1579285,40.5265617,74.8583298,-34.3317719,52.7742844,53.4528809,-0.6785943,68.0694427,49.137661,18.9317818,50.2038574,54.5907364,-4.3868775,70.2166824,49.7812805,20.4354019,74.2619476,52.2904854,21.9714584,72.23246,52.5510139,19.6814442,
4,70.2280273,52.4819794,17.7460518,40.5801582,75.251358,-34.6712036,51.9509888,53.6827164,-1.7317268,68.4842987,48.9704704,19.5138321,51.1553497,53.6091309,-2.4537797,70.6867218,49.5918503,21.0948715,75.1151352,51.7563248,23.3588066,72.8565369,51.9392548,20.917284,
5,70.2280273,52.4819794,17.7460518,41.1610527,74.6026306,-33.4415779,51.8720016,53.6125908,-1.7405914,68.1742554,48.748764,19.4254875,50.2148132,53.7026901,-3.4878778,71.1621094,48.8768845,22.285223,74.7687912,51.8959045,22.8728828,71.1124496,52.6421394,18.4703083,
6,70.2280273,52.4819794,17.7460518,41.2708664,74.5583725,-33.2875061,52.4034004,53.2013168,-0.7979164,68.0694427,49.137661,18.9317818,51.0808258,53.4488411,-2.3680136,69.8763123,49.7893028,20.0870113,74.1008377,52.1650925,21.9357433,72.0657654,52.8017159,19.2640495,
7,70.916893,52.3742905,18.5426006,41.0512352,74.6468887,-33.5956497,52.5010147,53.1619759,-0.6609632,68.2768707,49.0540657,19.2228069,51.3401299,53.0588608,-1.7187313,69.1959915,50.0634766,19.1325169,74.6015091,51.7797966,22.8217087,71.9355927,52.6706543,19.2649384,
8,71.2097321,52.2562752,18.9534607,41.1610527,74.6026306,-33.4415779,52.4082336,53.6004028,-1.1921686,68.0564651,49.3875885,18.6688786,50.3330956,54.137619,-3.8045247,70.692482,49.32444,21.368042,73.766861,52.2996864,21.4671726,71.7262039,53.3124084,18.4137993,
9,71.2230072,51.9110641,19.311945,40.8438072,74.730484,-33.886673,51.5110817,54.0639191,-2.5528355,68.1666718,49.2208252,18.9458427,51.6620407,53.1194496,-1.4574087,69.3194733,49.8777733,19.4417,72.9204788,53.218544,19.7019348,72.696022,52.1806717,20.5153465,
10,71.3495178,52.3698692,18.9796467,40.5265617,74.8583298,-34.3317719,51.2426414,54.1721001,-2.9294567,69.1317215,48.4784508,20.6532764,50.3756142,53.637886,-3.2622702,71.2794113,48.7004662,22.5789452,74.9422684,52.0163116,22.9259529,73.0052567,52.0560493,20.9492092,
11,69.4227142,52.8065262,16.616188,40.9536209,74.6862259,-33.7326012,53.9392319,53.0853577,0.8538742,68.7031631,49.1269646,19.5761929,50.339119,54.0332375,-3.694119,71.1621094,48.8768845,22.285223,73.2723846,52.6892853,20.5831032,72.5596771,52.0588951,20.5007782,
12,70.3240128,52.9598808,17.3641281,41.0512352,74.6468887,-33.5956497,52.8776779,53.5131683,-0.6354913,68.5937271,49.0487175,19.5450134,50.3950958,54.2077942,-3.8126988,71.039917,49.8641396,21.1757774,74.2669449,51.5475807,22.7193604,71.6814423,52.4128304,19.2686119,
13,71.3495178,52.3698692,18.9796467,40.8438072,74.730484,-33.886673,52.0415344,53.9520988,-1.9105625,68.3809509,48.8965683,19.4843845,51.0185242,53.1884689,-2.1699467,71.4099121,49.0353127,22.3745995,73.4452591,52.4292984,21.0159588,72.1264572,52.0567589,20.0697021,
14,69.6534729,53.0533867,16.6000862,40.8438072,74.730484,-33.886673,52.406601,54.1176453,-1.7110448,68.4842987,48.9704704,19.5138321,51.1793251,53.1236649,-1.9443389,70.4686127,48.6533775,21.8152332,74.4348145,52.0304985,22.404314,72.7320175,51.4728546,21.2591629,
15,70.508667,52.3688774,18.1397915,41.1610527,74.6026306,-33.4415779,52.3163986,53.7393684,-1.422972,68.2638931,49.3039932,18.9599037,50.8637619,53.1624756,-2.2987125,69.8763123,49.7893028,20.0870113,73.766861,52.2996864,21.4671726,71.2564697,53.6920319,17.5644379,
16,70.4831924,52.7190056,17.7641869,40.624176,74.8189926,-34.1948204,53.0436707,53.0452423,-0.0015711,68.9120941,48.5669632,20.3451309,49.7398415,54.6757813,-4.9359407,70.1290512,49.1640663,20.964983,73.4570389,52.0575027,21.3995342,73.7842484,51.5653839,22.2188663,
17,70.112648,52.3585472,17.7541027,40.8438072,74.730484,-33.886673,52.6824493,53.5918465,-0.9093977,69.2358017,48.3209534,20.914854,52.322773,52.2074394,0.1153329,70.4516983,49.6865654,20.7651367,74.7687912,51.8959045,22.8728828,72.5776749,51.7049866,20.8726845,
18,71.2230072,51.9110641,19.311945,41.9101486,74.7153625,-32.8052177,52.4034004,53.2013168,-0.7979164,68.5883789,48.812973,19.7754097,50.9823303,53.7740173,-2.7916884,69.1597595,50.6218529,18.5379028,75.6152115,51.0042191,24.6109943,73.0345383,51.0178757,22.0166588,
19,71.0893097,51.8018188,19.2874908,41.9101486,74.7153625,-32.8052177,52.9637337,53.2745743,-0.3108378,68.5883789,48.812973,19.7754097,50.425705,53.9983406,-3.572638,70.8106308,49.6778564,21.1327782,75.2818298,51.5056229,23.7762032,72.5776749,51.7049866,20.8726845,
20,69.8065338,52.8217735,16.9847584,40.4703407,75.2956161,-34.8252754,52.3163986,53.7393684,-1.422972,68.9235611,48.7934418,20.1301212,50.6850052,53.6083603,-2.9233556,70.1170959,49.4271774,20.6899166,74.1008377,52.1650925,21.9357433,72.2808075,51.8246269,20.4561787,
21,69.8065338,52.8217735,16.9847584,40.8974037,75.1235123,-34.2261047,52.591259,53.5266418,-0.9353814,69.2358017,48.3209534,20.914854,50.6607246,53.9036255,-3.2429037,69.8944473,49.5169067,20.3775368,73.2420883,53.0889359,20.1531506,72.3626328,52.6820793,19.6805553,
22,69.7627335,53.1860809,16.5766487,41.2268524,74.9907379,-33.7638893,52.591259,53.5266418,-0.9353814,68.7965393,48.4979782,20.2985649,49.5922356,55.2518539,-5.6596169,70.9274979,49.2297249,21.6977768,73.0995178,52.9492722,20.1502476,72.23246,52.5510139,19.6814442,
23,71.0893097,51.8018188,19.2874908,40.5801582,75.251358,-34.6712036,52.871254,53.6177177,-0.7464607,68.1742554,48.748764,19.4254875,50.5240479,53.5780678,-3.0540168,70.4574585,49.4191551,21.0383072,74.1008377,52.1650925,21.9357433,71.0697327,53.0196037,18.050127,
24,70.0749741,52.7135925,17.3613796,40.7875862,75.1677628,-34.3801765,52.7742844,53.4528809,-0.6785943,68.5883789,48.812973,19.7754097,50.8456535,53.4484558,-2.6028016,70.1290512,49.1640663,20.964983,75.4485168,51.254921,24.1935997,72.4233246,51.9371185,20.486208,
25,70.0433731,53.0729828,16.9703884,40.0432816,75.4677277,-35.4244461,52.7742844,53.4528809,-0.6785943,68.2768707,49.0540657,19.2228069,49.955513,54.0926704,-4.1371603,70.69207,49.0663147,21.6257534,75.42939,50.9023819,24.5270081,72.720192,51.8174782,20.9027138,
26,70.5280228,52.0280151,18.5000095,40.4703407,75.2956161,-34.8252754,52.6940079,53.7911072,-1.0970981,68.6931915,48.4240761,20.2691154,50.2891808,53.7678795,-3.4786975,69.5120544,50.3371353,19.1749249,73.9335556,52.0489845,21.8845692,72.15065,51.7071495,20.4435043,
27,69.8442154,52.466732,17.3774815,40.2507095,75.3841324,-35.133419,51.393856,54.5257874,-3.1319337,67.1348648,49.8745499,17.2603188,51.2979126,53.7487907,-2.4508784,68.9552155,50.425602,18.5296116,74.7681961,51.5290947,23.2391052,71.9355927,52.6706543,19.2649384,
28,70.916893,52.3742905,18.5426006,39.8358498,75.5513229,-35.7154694,53.1467628,53.2008133,-0.0540506,67.2198944,49.9626312,17.2572613,49.7764702,54.3619461,-4.5854745,71.7746048,48.7591896,23.0154114,73.7551041,52.68507,21.070034,71.2364273,52.7689018,18.4675236,
29,70.7638321,52.6059036,18.1579285,40.4167442,74.9025879,-34.4858437,52.407589,53.8045769,-1.3969882,68.0701752,48.9062614,19.1639099,50.0541611,53.8625946,-3.8084319,70.8040237,49.415432,21.3885937,74.4348145,52.0304985,22.404314,73.0288849,51.3532143,21.6756687,
30,70.112648,52.3585472,17.7541027,39.5992279,75.2320557,-35.6328278,51.9496994,54.0910645,-2.1413658,69.1317215,48.4784508,20.6532764,49.8690796,54.2226639,-4.3535876,70.5747681,49.242733,21.3320313,75.1021729,51.3945007,23.707674,71.3542252,52.9049492,18.4492798,
31,70.508667,52.3688774,18.1397915,39.9334641,75.5119858,-35.5785179,53.1583176,53.4000702,-0.241751,68.1666718,49.2208252,18.9458427,49.0525398,54.4565735,-5.4040341,69.4610977,49.4332542,20.0278435,75.4485168,51.254921,24.1935997,72.720192,51.8174782,20.9027138,
32,70.2280273,52.4819794,17.7460518,39.9334641,75.5119858,-35.5785179,51.8253174,54.8888817,-3.0635624,68.5883789,48.812973,19.7754097,50.4815292,54.0778008,-3.5962713,69.5363617,50.0554543,19.4809093,74.6015091,51.7797966,22.8217087,72.4351501,51.592495,20.8426571,
33,69.9219131,52.9452057,16.9767075,40.360527,75.3398743,-34.9793472,51.5836487,54.2385864,-2.6549401,68.4835281,49.215477,19.2680492,50.5984192,53.6432533,-3.0448368,68.9857101,50.1482201,18.837492,74.7614365,51.1715698,23.5898666,73.1714096,51.4657097,21.705698,
34,70.7638321,52.6059036,18.1579285,39.9042702,75.1091232,-35.2048492,52.591259,53.5266418,-0.9353814,68.0701752,48.9062614,19.1639099,50.2149658,53.7977905,-3.5828242,69.1778641,50.3358727,18.8419914,74.434227,51.6636887,22.7705345,72.3991547,52.300312,20.0988407,
35,70.6362534,52.4873924,18.1488609,39.9334641,75.5119858,-35.5785179,53.0607033,53.4394073,-0.3787042,68.0694427,49.137661,18.9317818,49.7206459,54.282486,-4.561841,69.8581848,50.0616989,19.7964859,74.1008377,52.1650925,21.9357433,72.4233246,51.9371185,20.486208,
36,71.5158539,51.7930489,19.722805,39.5992279,75.2320557,-35.6328278,53.3362122,53.0225067,0.3137059,68.2783356,48.5912666,19.6870651,49.083931,54.7362022,-5.6522694,70.1170959,49.4271774,20.6899166,75.6152115,51.0042191,24.6109943,73.0170593,51.6978378,21.3192215,
37,71.362793,52.024662,19.3381329,40.3069305,74.946846,-34.6399155,52.5906143,53.7308159,-1.140201,68.0694427,49.137661,18.9317818,50.7212181,53.036396,-2.3151777,69.8944473,49.5169067,20.3775368,74.1002502,51.7982826,22.3019657,71.6387253,52.7902946,18.8484325,
38,71.8086929,51.6750298,20.1336632,39.7260361,75.5955811,-35.8695412,51.8585091,54.0258598,-2.1673496,68.9120941,48.5669632,20.3451309,50.5559006,54.1429901,-3.5870912,70.2224426,49.5138702,20.7085743,75.2688675,51.1437988,24.1250706,71.2364273,52.7689018,18.4675236,
39,70.0433731,53.0729828,16.9703884,41.0072212,75.0792542,-34.0720329,53.175312,53.8078499,-0.6325387,67.8490372,49.4711838,18.3778534,49.7206459,54.282486,-4.561841,69.7347107,50.247406,19.4873047,74.6015091,51.7797966,22.8217087,70.6798019,52.9932251,17.6865749,
40,70.7638321,52.6059036,18.1579285,41.3806839,74.5141144,-33.1334305,53.6691589,53.7107811,-0.0416232,68.7965393,48.4979782,20.2985649,50.1283798,53.8326836,-3.7043054,70.9270859,48.9715996,21.9554882,73.2118073,53.5021706,19.7096329,73.1714096,51.4657097,21.705698,
41,71.5025787,52.1382561,19.3643188,40.4167442,74.9025879,-34.4858437,52.6930199,54.1041718,-1.4111547,69.4432373,48.2373581,21.2058792,50.2891808,53.7678795,-3.4786975,69.7590103,49.9657249,19.7932892,74.2619476,52.2904854,21.9714584,72.720192,51.8174782,20.9027138,
42,70.8974915,52.7287636,18.1687279,40.4167442,74.9025879,-34.4858437,51.8453178,54.3438454,-2.4985254,67.537529,49.7122765,17.8252506,50.3330956,54.137619,-3.8045247,69.8581848,50.0616989,19.7964859,73.1236496,52.5589066,20.564743,71.2729645,52.4007225,18.8722458,
43,70.6362534,52.4873924,18.1488609,40.360527,75.3398743,-34.9793472,52.4123802,54.2172737,-1.804895,68.5891113,48.5815735,20.0075378,51.1372643,53.9086952,-2.7714326,70.3339844,49.6048584,20.729126,73.2420883,53.0889359,20.1531506,73.4806442,51.3410835,22.1395588,
44,70.7893143,52.2557793,18.5335331,41.0512352,74.6468887,-33.5956497,53.5603333,53.4419708,0.1183612,69.0161743,48.4094658,20.6067085,51.8107796,53.2498283,-1.4390482,70.5743484,48.9846077,21.5897427,74.434227,51.6636887,22.7705345,72.3626328,52.6820793,19.6805553,
45,70.3556137,52.6004906,17.7551193,41.2708664,74.5583725,-33.2875061,52.0341225,54.3697128,-2.3355885,68.0701752,48.9062614,19.1639099,50.6424866,54.1080933,-3.46561,70.4628296,48.9072037,21.5556259,73.6237335,51.8068008,21.8169308,72.5051727,52.8081551,19.6970215,
46,71.2230072,51.9110641,19.311945,40.0994987,75.0304413,-34.9309425,53.4453812,53.1824226,0.2629586,68.1735229,48.9801636,19.1933594,50.5681152,54.0429077,-3.4747903,69.999794,49.6035995,20.3961926,73.4570389,52.0575027,21.3995342,72.838562,52.3067513,20.5318127,
47,70.1648331,53.2007599,16.9640694,40.8438072,74.730484,-33.886673,52.6882286,53.6914749,-1.0032479,68.2776031,48.8226662,19.454937,51.1128502,54.122448,-3.009598,70.0117493,49.3404884,20.6712589,74.0890808,52.5504723,21.5386028,71.8419647,52.1714134,19.6705494,
48,71.6638184,51.2440186,20.4198017,40.5801582,75.251358,-34.6712036,52.9746475,53.6780052,-0.7033578,68.0701752,48.9062614,19.1639099,50.0246658,54.7649117,-4.7402449,69.8581848,50.0616989,19.7964859,75.2886124,51.8767319,23.4118767,71.6814423,52.4128304,19.2686119,
49,69.9219131,52.9452057,16.9767075,41.3806839,74.5141144,-33.1334305,51.9432755,54.1956139,-2.2523353,68.4850311,48.7390709,19.7459621,50.5984192,53.6432533,-3.0448368,70.2224426,49.5138702,20.7085743,73.2723846,52.6892853,20.5831032,71.3969421,52.5274849,18.8694611,
50,71.2097321,52.2562752,18.9534607,41.1610527,74.6026306,-33.4415779,52.5000687,53.4614334,-0.9613652,67.8627396,48.9898567,18.8728848,50.9763069,53.8784027,-2.9020939,71.5268021,48.6007652,22.9260349,75.1151352,51.7563248,23.3588066,73.1477966,52.1821251,20.9656734,
51,70.3556137,52.6004906,17.7551193,41.1610527,74.6026306,-33.4415779,53.0780411,53.7382965,-0.6602548,68.0694427,49.137661,18.9317818,51.2979126,53.7487907,-2.4508784,69.3013382,50.1501694,19.1511745,74.7687912,51.8959045,22.8728828,73.0052567,52.0560493,20.9492092,
52,69.7188873,53.564003,16.1548824,40.7875862,75.1677628,-34.3801765,52.497448,54.2917442,-1.7942982,68.4842987,48.9704704,19.5138321,53.0160484,52.2950897,0.7209596,70.0989685,49.6995735,20.3993912,74.1058578,51.4357719,22.6700821,72.3991547,52.300312,20.0988407,
53,70.6362534,52.4873924,18.1488609,40.4167442,74.9025879,-34.4858437,51.8642883,54.1254883,-2.2612,68.4850311,48.7390709,19.7459621,50.9763069,53.8784027,-2.9020939,70.69207,49.0663147,21.6257534,73.0995178,52.9492722,20.1502476,72.696022,52.1806717,20.5153465,
54,70.6362534,52.4873924,18.1488609,40.7875862,75.1677628,-34.3801765,53.2617111,53.4603577,-0.1986481,68.8080139,48.7244606,20.0835552,51.8109322,53.3449249,-1.5339946,70.3339844,49.6048584,20.729126,74.0649719,52.9544258,21.1105442,71.8054199,52.5395927,19.2658272,
55,70.2280273,52.4819794,17.7460518,40.8974037,75.1235123,-34.2261047,53.1756554,53.6989555,-0.5233017,68.1742554,48.748764,19.4254875,51.390522,53.6095123,-2.218992,69.5540771,49.5249329,20.0291462,74.1002502,51.7982826,22.3019657,71.8054199,52.5395927,19.2658272,
56,70.7638321,52.6059036,18.1579285,40.8974037,75.1235123,-34.2261047,52.7794189,53.7566833,-0.977264,69.2358017,48.3209534,20.914854,50.9200249,53.5136452,-2.5936213,70.0989685,49.6995735,20.3993912,74.1008377,52.1650925,21.9357433,72.8565369,51.9392548,20.917284,
57,70.7893143,52.2557793,18.5335331,40.7339897,74.7747345,-34.0407486,52.5906143,53.7308159,-1.140201,67.3491516,49.5502892,17.7988605,50.5863533,53.8384361,-3.252084,69.8940277,49.2587814,20.6352482,73.4452591,52.4292984,21.0159588,71.9963074,51.9392815,20.0570259,
58,70.6362534,52.4873924,18.1488609,40.8438072,74.730484,-33.886673,52.3089867,54.1569824,-1.847998,68.5937271,49.0487175,19.5450134,50.8898735,54.0083961,-3.1185212,71.644516,48.6824722,22.9620457,74.2675323,51.9143906,22.3531399,71.8054199,52.5395927,19.2658272,
59,70.112648,52.3585472,17.7541027,40.5265617,74.8583298,-34.3317719,52.2303391,53.9779663,-1.7476256,68.0701752,48.9062614,19.1639099,49.7328606,54.1823997,-4.4495401,71.749054,48.2664948,23.4825611,75.7948685,51.1153412,24.6795235,72.8565369,51.9392548,20.917284,
60,70.508667,52.3688774,18.1397915,39.7944565,75.1533737,-35.3589211,52.6875839,53.8956528,-1.2080674,68.4842987,48.9704704,19.5138321,50.7471581,53.773632,-3.0264761,70.9270859,48.9715996,21.9554882,74.2675323,51.9143906,22.3531399,72.8745422,51.5853462,21.2891922,
61,70.2801666,53.3378029,16.9423637,40.360527,75.3398743,-34.9793472,52.6021729,53.9300728,-1.3279015,67.7518082,49.3880157,18.3637924,50.9640923,53.9784851,-3.0143948,70.2047501,50.0579758,20.1467724,75.6152115,51.0042191,24.6109943,72.8565369,51.9392548,20.917284,
62,71.362793,52.024662,19.3381329,40.9536209,74.6862259,-33.7326012,52.1259613,54.2307434,-2.1047852,67.7586594,49.1473541,18.6113071,51.5756073,53.2494431,-1.6738361,71.1621094,48.8768845,22.285223,74.9354782,51.6452026,23.2902794,71.8419647,52.1714134,19.6705494,
63,70.3556137,52.6004906,17.7551193,40.360527,75.3398743,-34.9793472,52.8828125,53.8169746,-0.9341611,67.667511,49.0685349,18.598978,51.3282166,53.3491402,-2.0209248,69.6536636,49.8790321,19.7746315,74.6015091,51.7797966,22.8217087,73.3262939,51.5732155,21.7530823,
64,70.6749649,51.8056679,18.8692951,40.4167442,74.9025879,-34.4858437,52.1327248,54.0173035,-1.8845787,67.966095,49.0637589,18.9023342,50.6727867,53.7084427,-3.0356565,70.5739594,48.7400665,21.8338909,75.0954132,51.0369759,24.0584373,73.3314056,50.8982391,22.4331665,
65,69.7627335,53.1860809,16.5766487,40.4703407,75.2956161,-34.8252754,52.7742844,53.4528809,-0.6785943,68.1742554,48.748764,19.4254875,50.7471581,53.773632,-3.0264761,71.4094925,48.7771835,22.6323109,75.6152115,51.0042191,24.6109943,71.9659424,52.2981758,19.6677647,
66,69.9219131,52.9452057,16.9767075,41.3806839,74.5141144,-33.1334305,52.4140129,53.7000313,-1.2860188,67.2648544,49.2308083,18.0340462,51.6379089,53.5098152,-1.8719031,70.5739594,48.7400665,21.8338909,74.1002502,51.7982826,22.3019657,73.1832275,51.1210823,22.0621471,
67,71.5158539,51.7930489,19.722805,40.9536209,74.6862259,-33.7326012,53.7440033,53.1640358,0.5799679,67.9592361,49.3044205,18.6548176,50.4999199,53.9684334,-3.4685113,71.5338211,49.121315,22.4125061,74.1008377,52.1650925,21.9357433,73.3144913,51.9314232,21.38307,
68,70.7893143,52.2557793,18.5335331,41.0512352,74.6468887,-33.5956497,52.5052032,53.7652359,-1.260035,68.8080139,48.7244606,20.0835552,51.1188736,54.0180664,-2.8991926,72.1392975,48.4830704,23.6562233,74.4348145,52.0304985,22.404314,72.3991547,52.300312,20.0988407,
69,71.0699539,52.1426773,18.9272728,40.5801582,75.251358,-34.6712036,53.3477669,53.2217636,0.1260055,68.2768707,49.0540657,19.2228069,51.2920456,53.9482765,-2.6562304,70.1162872,48.924511,21.1917763,73.3970184,53.2236137,20.1734047,72.5293274,52.4313736,20.0979519,
70,70.1148605,53.587944,16.5269184,40.8438072,74.730484,-33.886673,53.646389,53.203373,0.4430147,68.4842987,48.9704704,19.5138321,51.0687637,53.6440239,-2.5752609,68.7630615,50.2379494,18.5251122,73.9279709,52.4250793,21.5028877,72.1022873,52.4199524,19.6823349,
71,70.1648331,53.2007599,16.9640694,40.5801582,75.251358,-34.6712036,53.0776978,53.847187,-0.7694919,68.5883789,48.812973,19.7754097,51.0808258,53.4488411,-2.3680136,70.0051575,49.0916481,20.9135113,74.7681961,51.5290947,23.2391052,71.9963074,51.9392815,20.0570259,
72,70.0749741,52.7135925,17.3613796,40.9536209,74.6862259,-33.7326012,53.3705368,53.7291718,-0.3586324,68.0701752,48.9062614,19.1639099,51.2417831,53.4791336,-2.2373524,71.1555176,48.6280441,22.5274754,74.7687912,51.8959045,22.8728828,73.0288849,51.3532143,21.6756687,
73,70.916893,52.3742905,18.5426006,40.8438072,74.730484,-33.886673,52.6824493,53.5918465,-0.9093977,68.1742554,48.748764,19.4254875,49.5538216,54.4516754,-4.8978543,70.2224426,49.5138702,20.7085743,76.4807892,50.4786568,26.0021343,73.0288849,51.3532143,21.6756687,
74,70.6362534,52.4873924,18.1488609,40.8438072,74.730484,-33.886673,51.9432755,54.1956139,-2.2523353,67.8620148,49.2212563,18.6407566,50.9443054,53.21838,-2.2740734,69.6355362,50.1514282,19.4841061,74.434227,51.6636887,22.7705345,72.720192,51.8174782,20.9027138,
75,69.3351135,53.535141,15.7999678,41.0512352,74.6468887,-33.5956497,52.9688683,53.5783768,-0.6095076,68.2638931,49.3039932,18.9599037,49.9688377,54.6854515,-4.7166119,69.7767258,49.4352036,20.341526,75.1021729,51.3945007,23.707674,71.9355927,52.6706543,19.2649384,
76,71.2097321,52.2562752,18.9534607,40.4167442,74.9025879,-34.4858437,52.7742844,53.4528809,-0.6785943,67.966095,49.0637589,18.9023342,51.8349075,52.8594627,-1.0245538,69.5540771,49.5249329,20.0291462,74.434227,51.6636887,22.7705345,72.4233246,51.9371185,20.486208,
77,70.80867,51.914917,18.8937492,41.0512352,74.6468887,-33.5956497,52.2303391,53.9779663,-1.7476256,68.4850311,48.7390709,19.7459621,51.1371117,53.8135986,-2.6764863,69.7825089,49.1813774,20.6011314,74.1002502,51.7982826,22.3019657,72.720192,51.8174782,20.9027138,
78,71.0699539,52.1426773,18.9272728,41.2268524,74.9907379,-33.7638893,52.5906143,53.7308159,-1.140201,68.5891113,48.5815735,20.0075378,51.8344727,52.5877495,-0.7532783,70.4628296,48.9072037,21.5556259,74.5959167,52.1558914,22.4400272,73.6355362,51.4485893,22.1869431,
79,70.7638321,52.6059036,18.1579285,40.5265617,74.8583298,-34.3317719,52.5052032,53.7652359,-1.260035,68.6924591,48.6554756,20.0369873,50.7470055,53.6785355,-2.9315298,69.5540771,49.5249329,20.0291462,74.434227,51.6636887,22.7705345,73.6349869,51.1089516,22.5260372,
80,70.9423676,52.0241661,18.9182053,40.624176,74.8189926,-34.1948204,53.0607033,53.4394073,-0.3787042,68.4850311,48.7390709,19.7459621,50.8897209,53.9132957,-3.0235748,70.3339844,49.6048584,20.729126,76.1220779,50.6232224,25.4988556,72.3050003,51.4750175,20.8299828,
81,71.0699539,52.1426773,18.9272728,39.9042702,75.1091232,-35.2048492,52.3221779,53.8389969,-1.5168222,68.9985809,48.1922493,20.8063316,50.2392464,53.5025215,-3.2632761,71.495079,48.1173553,23.3777256,74.6009216,51.4129868,23.1879311,72.8745422,51.5853462,21.2891922,
82,70.3810883,52.2503662,18.130724,40.2093163,74.9861832,-34.7768707,51.6819077,53.9950752,-2.3131676,69.1309967,48.7098465,20.4211464,50.1600761,54.3025093,-4.1424332,71.3905411,48.533329,22.8572083,73.4570389,52.0575027,21.3995342,72.2628098,52.1785355,20.0842705,
83,70.3556137,52.6004906,17.7551193,40.4167442,74.9025879,-34.4858437,51.6754837,54.0996208,-2.4241369,68.4850311,48.7390709,19.7459621,50.1783142,54.0980415,-3.9197268,70.3397446,49.3374481,21.0022964,74.1008377,52.1650925,21.9357433,72.696022,52.1806717,20.5153465,
84,71.8097229,51.3483505,20.4613743,40.9536209,74.6862259,-33.7326012,51.8510971,54.4434738,-2.5923758,68.5883789,48.812973,19.7754097,51.5875168,52.9591599,-1.3716425,69.7590103,49.9657249,19.7932892,75.4485168,51.254921,24.1935997,72.1022873,52.4199524,19.6823349,
85,70.5280228,52.0280151,18.5000095,39.6968422,75.1927185,-35.4958725,52.7742844,53.4528809,-0.6785943,68.1742554,48.748764,19.4254875,50.771286,53.3832664,-2.6119819,69.8944473,49.5169067,20.3775368,74.6009216,51.4129868,23.1879311,72.1022873,52.4199524,19.6823349,
86,70.3810883,52.2503662,18.130724,40.2093163,74.9861832,-34.7768707,51.9432755,54.1956139,-2.2523353,68.2776031,48.8226662,19.454937,50.4620476,53.5078926,-3.0458426,70.9270859,48.9715996,21.9554882,74.6009216,51.4129868,23.1879311,72.2628098,52.1785355,20.0842705,
87,71.2230072,51.9110641,19.311945,39.5992279,75.2320557,-35.6328278,52.0479584,53.8475533,-1.7995931,67.9668198,48.8323593,19.1344624,50.0663795,53.7625084,-3.6961312,70.5747681,49.242733,21.3320313,74.0890808,52.5504723,21.5386028,71.2729645,52.4007225,18.8722458,
88,69.9219131,52.9452057,16.9767075,39.6968422,75.1927185,-35.4958725,52.1327248,54.0173035,-1.8845787,68.5891113,48.5815735,20.0075378,50.4816818,54.1729012,-3.6912177,69.7590103,49.9657249,19.7932892,75.6473236,51.7321701,23.9151554,73.0288849,51.3532143,21.6756687,
89,70.3556137,52.6004906,17.7551193,40.2093163,74.9861832,-34.7768707,51.766674,54.1648254,-2.3981531,68.1666718,49.2208252,18.9458427,50.5121384,53.8683472,-3.3562105,69.3437958,49.6096764,19.7341194,74.2669449,51.5475807,22.7193604,72.0657654,52.8017159,19.2640495,
90,70.2595901,52.1362,18.1233883,40.3069305,74.946846,-34.6399155,52.9688683,53.5783768,-0.6095076,68.6924591,48.6554756,20.0369873,50.2148132,53.7026901,-3.4878778,70.5743484,48.9846077,21.5897427,74.4230499,52.4158783,22.0071735,71.8054199,52.5395927,19.2658272,
91,70.0749741,52.7135925,17.3613796,40.8438072,74.730484,-33.886673,52.5042152,54.0783043,-1.5740917,67.966095,49.0637589,18.9023342,50.7471581,53.773632,-3.0264761,70.796608,48.6503372,22.1462708,73.3144913,51.9314232,21.38307,72.7376709,51.137516,21.600153,
92,70.916893,52.3742905,18.5426006,39.9042702,75.1091232,-35.2048492,52.7851982,53.8563118,-1.0711143,67.7586594,49.1473541,18.6113071,50.9078064,53.6137314,-2.7059221,71.3650131,48.0542183,23.3107967,73.4570389,52.0575027,21.3995342,72.8745422,51.5853462,21.2891922,
93,69.8065338,52.8217735,16.9847584,40.9536209,74.6862259,-33.7326012,52.6824493,53.5918465,-0.9093977,68.2768707,49.0540657,19.2228069,50.7167015,54.078186,-3.3614833,71.1621094,48.8768845,22.285223,75.5899048,50.660965,24.9289436,72.2808075,51.8246269,20.4561787,
94,69.6534729,53.0533867,16.6000862,40.7339897,74.7747345,-34.0407486,52.689518,53.2831268,-0.5936087,68.3809509,48.8965683,19.4843845,51.8349075,52.8594627,-1.0245538,71.644516,48.6824722,22.9620457,74.434227,51.6636887,22.7705345,72.5776749,51.7049866,20.8726845,
95,69.1165924,53.2697525,15.8468437,40.7339897,74.7747345,-34.0407486,53.0549278,53.3397789,-0.284854,68.6924591,48.6554756,20.0369873,49.6910172,55.1032867,-5.4122715,69.0038452,49.875824,19.1280174,75.1021729,51.3945007,23.707674,71.6814423,52.4128304,19.2686119,
96,70.2280273,52.4819794,17.7460518,41.2708664,74.5583725,-33.2875061,53.0722618,53.6386681,-0.5664046,68.1688614,48.5266304,19.6422291,51.3338013,52.9730453,-1.639244,71.3650131,48.0542183,23.3107967,74.6009216,51.4129868,23.1879311,71.7118073,52.053936,19.6578751,
97,70.3556137,52.6004906,17.7551193,40.0018845,75.0697784,-35.067894,52.8776779,53.5131683,-0.6354913,68.6931915,48.4240761,20.2691154,50.0541611,53.8625946,-3.8084319,70.5739594,48.7400665,21.8338909,74.1002502,51.7982826,22.3019657,73.4800949,51.0014458,22.478653,
98,71.0893097,51.8018188,19.2874908,40.4167442,74.9025879,-34.4858437,53.0607033,53.4394073,-0.3787042,67.7715912,48.9110374,18.8605556,50.6850052,53.6083603,-2.9233556,70.3397446,49.3374481,21.0022964,74.2675323,51.9143906,22.3531399,72.4351501,51.592495,20.8426571,
99,70.5280228,52.0280151,18.5000095,39.9042702,75.1091232,-35.2048492,51.956768,53.7823448,-1.8255769,67.966095,49.0637589,18.9023342,51.5635414,53.4446259,-1.8810834,71.0443878,48.7951775,22.2492104,73.6119461,52.1785965,21.4333534,71.8054199,52.5395927,19.2658272,
100,71.362793,52.024662,19.3381329,40.3069305,74.946846,-34.6399155,52.6882286,53.6914749,-1.0032479,68.4857635,48.5076714,19.9780903,51.4890213,53.2843361,-1.7953172,70.5797424,48.4862442,22.0934963,75.1021729,51.3945007,23.707674,71.9963074,51.9392815,20.0570259,
101,70.112648,52.3585472,17.7541027,40.2093163,74.9861832,-34.7768707,51.4063988,54.4119759,-3.0055776,68.3762894,48.4430351,19.9332542,51.0928917,53.2536583,-2.1607664,71.7301025,48.0226402,23.7074604,73.6237335,51.8068008,21.8169308,72.3050003,51.4750175,20.8299828,
102,70.6617279,52.1372643,18.5244637,40.5265617,74.8583298,-34.3317719,52.683094,53.3876724,-0.7045781,68.2768707,49.0540657,19.2228069,50.3330956,54.137619,-3.8045247,69.7767258,49.4352036,20.341526,74.434227,51.6636887,22.7705345,71.2729645,52.4007225,18.8722458,
103,70.6617279,52.1372643,18.5244637,40.7339897,74.7747345,-34.0407486,53.1467628,53.2008133,-0.0540506,69.5473175,48.0798607,21.4674568,50.0298805,54.1578598,-4.1279802,69.0786896,50.2398987,18.8387947,74.2675323,51.9143906,22.3531399,72.838562,52.3067513,20.5318127,
104,71.0893097,51.8018188,19.2874908,40.9536209,74.6862259,-33.7326012,53.3593254,53.4210205,-0.0616949,68.2768707,49.0540657,19.2228069,50.3208809,54.2377052,-3.9168255,69.2384491,49.5229874,19.7154636,73.6237335,51.8068008,21.8169308,72.4351501,51.592495,20.8426571,
105,70.80867,51.914917,18.8937492,40.0994987,75.0304413,-34.9309425,51.7865868,53.6470146,-1.8604254,68.3762894,48.4430351,19.9332542,50.1149635,53.1855621,-3.0705988,70.1290512,49.1640663,20.964983,73.9453354,51.6771889,22.2681465,73.0170593,51.6978378,21.3192215,
106,70.6362534,52.4873924,18.1488609,41.0512352,74.6468887,-33.5956497,52.5042152,54.0783043,-1.5740917,68.1742554,48.748764,19.4254875,50.9640923,53.9784851,-3.0143948,68.8684082,50.3246422,18.5437679,73.9335556,52.0489845,21.8845692,72.720192,51.8174782,20.9027138,
107,69.8442154,52.466732,17.3774815,40.9536209,74.6862259,-33.7326012,52.3221779,53.8389969,-1.5168222,68.0694427,49.137661,18.9317818,50.0430565,54.6555405,-4.6124849,70.3397446,49.3374481,21.0022964,74.2675323,51.9143906,22.3531399,72.3991547,52.300312,20.0988407,
108,70.5280228,52.0280151,18.5000095,41.0512352,74.6468887,-33.5956497,53.1640968,53.4996986,-0.3356012,68.4842987,48.9704704,19.5138321,52.3302956,53.0404587,-0.7101618,69.5722275,49.2661209,20.3061066,73.7551041,52.68507,21.070034,72.720192,51.8174782,20.9027138,
109,70.2025528,52.8321037,17.3704472,40.8438072,74.730484,-33.886673,52.6882286,53.6914749,-1.0032479,68.0709,48.6748619,19.39604,49.7948608,54.2525749,-4.4577146,70.796608,48.6503372,22.1462708,74.9354782,51.6452026,23.2902794,71.8661575,51.821804,20.0443516,
110,70.2025528,52.8321037,17.3704472,40.7339897,74.7747345,-34.0407486,52.871254,53.6177177,-0.7464607,67.7518082,49.3880157,18.3637924,49.5649681,53.6858978,-4.1209288,69.3194733,49.8777733,19.4417,73.9335556,52.0489845,21.8845692,72.3991547,52.300312,20.0988407,
111,70.4831924,52.7190056,17.7641869,40.8438072,74.730484,-33.886673,52.7742844,53.4528809,-0.6785943,67.9668198,48.8323593,19.1344624,50.0246658,54.7649117,-4.7402449,70.3397446,49.3374481,21.0022964,74.7681961,51.5290947,23.2391052,71.1124496,52.6421394,18.4703083,
112,70.6617279,52.1372643,18.5244637,40.3069305,74.946846,-34.6399155,52.7851982,53.8563118,-1.0711143,68.0694427,49.137661,18.9317818,51.1793251,53.1236649,-1.9443389,69.8944473,49.5169067,20.3775368,74.2675323,51.9143906,22.3531399,73.0170593,51.6978378,21.3192215,
113,70.3810883,52.2503662,18.130724,40.9536209,74.6862259,-33.7326012,52.9746475,53.6780052,-0.7033578,68.2776031,48.8226662,19.454937,51.2417831,53.4791336,-2.2373524,70.692482,49.32444,21.368042,72.9507828,52.8188934,20.1318874,73.0052567,52.0560493,20.9492092,
114,70.2280273,52.4819794,17.7460518,40.624176,74.8189926,-34.1948204,52.0421791,53.7479248,-1.705743,68.5937271,49.0487175,19.5450134,51.4024353,53.3192329,-1.9167982,72.0092087,48.406353,23.6028576,74.7681961,51.5290947,23.2391052,72.838562,52.3067513,20.5318127,
115,70.0749741,52.7135925,17.3613796,40.5265617,74.8583298,-34.3317719,53.1583176,53.4000702,-0.241751,68.3740997,49.1372299,19.2368679,51.1553497,53.6091309,-2.4537797,71.0443878,48.7951775,22.2492104,75.0510178,50.368351,24.6826668,72.8745422,51.5853462,21.2891922,
116,70.2280273,52.4819794,17.7460518,40.4167442,74.9025879,-34.4858437,52.8828125,53.8169746,-0.9341611,68.4850311,48.7390709,19.7459621,51.9783859,53.5697174,-1.5913308,71.1691284,49.397438,21.7716942,73.6119461,52.1785965,21.4333534,73.7893372,50.8768196,22.9125137,
117,70.508667,52.3688774,18.1397915,40.4167442,74.9025879,-34.4858437,52.4069443,54.0087509,-1.6018077,67.5443802,49.471611,18.0727673,50.6605721,53.8085289,-3.1479573,70.2166824,49.7812805,20.4354019,73.9335556,52.0489845,21.8845692,71.9659424,52.2981758,19.6677647,
118,69.4227142,52.8065262,16.616188,40.8438072,74.730484,-33.886673,54.0310669,52.9463882,1.0846776,68.0709,48.6748619,19.39604,51.4891739,53.3794365,-1.8902636,69.6713791,49.3485107,20.3228683,74.7423248,50.8326149,23.9097118,73.3262939,51.5732155,21.7530823,
119,70.0749741,52.7135925,17.3613796,40.4167442,74.9025879,-34.4858437,52.2187843,53.7787094,-1.5599251,67.9668198,48.8323593,19.1344624,50.9821777,53.6789169,-2.6967418,70.5747681,49.242733,21.3320313,74.7687912,51.8959045,22.8728828,72.5895004,51.360363,21.2291336,
120,70.5280228,52.0280151,18.5000095,41.0512352,74.6468887,-33.5956497,53.646389,53.203373,0.4430147,68.3708954,48.2209015,20.1499977,49.9006424,54.6109772,-4.7103329,71.0443878,48.7951775,22.2492104,75.2688675,51.1437988,24.1250706,71.9659424,52.2981758,19.6677647,
121,70.9423676,52.0241661,18.9182053,40.9536209,74.6862259,-33.7326012,53.462719,53.4813118,-0.018592,67.667511,49.0685349,18.598978,51.741993,52.8085403,-1.0665475,69.7347107,50.247406,19.4873047,74.6015091,51.7797966,22.8217087,73.4750137,51.6900063,21.7850056,
122,70.3810883,52.2503662,18.130724,40.5265617,74.8583298,-34.3317719,52.3170433,53.5351944,-1.2181524,68.1742554,48.748764,19.4254875,50.2466621,54.2676125,-4.0209522,69.3194733,49.8777733,19.4417,74.6015091,51.7797966,22.8217087,73.1714096,51.4657097,21.705698,
123,71.5158539,51.7930489,19.722805,40.3069305,74.946846,-34.6399155,52.3170433,53.5351944,-1.2181524,68.2776031,48.8226662,19.454937,50.0663795,53.7625084,-3.6961312,69.4186478,49.9737473,19.4448967,74.2619476,52.2904854,21.9714584,71.9659424,52.2981758,19.6677647,
124,69.9595947,52.5901604,17.3694305,40.0018845,75.0697784,-35.067894,52.2235718,54.1914063,-1.967832,68.6931915,48.4240761,20.2691154,50.7046585,54.286953,-3.5822945,70.3339844,49.6048584,20.729126,74.6015091,51.7797966,22.8217087,73.0170593,51.6978378,21.3192215,
125,71.2230072,51.9110641,19.311945,39.1965714,75.3943253,-36.1977577,52.5052032,53.7652359,-1.260035,68.1742554,48.748764,19.4254875,49.5842743,54.1471214,-4.5628471,71.644516,48.6824722,22.9620457,75.6473236,51.7321701,23.9151554,72.0205002,51.5896721,20.43083,
126,70.7893143,52.2557793,18.5335331,40.0432816,75.4677277,-35.4244461,52.8770332,53.7173462,-0.8403109,68.3809509,48.8965683,19.4843845,50.0186424,54.8692932,-4.8506508,69.5363617,50.0554543,19.4809093,74.7423248,50.8326149,23.9097118,72.4233246,51.9371185,20.486208,
127,70.9423676,52.0241661,18.9182053,40.624176,74.8189926,-34.1948204,52.689518,53.2831268,-0.5936087,68.3816833,48.6651688,19.7165127,51.3846512,53.8089981,-2.4243438,70.3397446,49.3374481,21.0022964,73.2903442,52.3082047,20.9821377,72.1022873,52.4199524,19.6823349,
128,71.0893097,51.8018188,19.2874908,40.2507095,75.3841324,-35.133419,52.7800636,53.5525093,-0.7724445,68.1688614,48.5266304,19.6422291,49.9372749,54.2971382,-4.3598666,70.4628296,48.9072037,21.5556259,73.7786407,51.9278946,21.85075,73.4800949,51.0014458,22.478653,
129,69.9219131,52.9452057,16.9767075,40.7339897,74.7747345,-34.0407486,53.1698761,53.5993271,-0.4294514,68.1666718,49.2208252,18.9458427,50.7771759,53.1973686,-2.4201937,68.9552155,50.425602,18.5296116,74.0890808,52.5504723,21.5386028,72.15065,51.7071495,20.4435043,
130,70.9423676,52.0241661,18.9182053,40.8438072,74.730484,-33.886673,52.6021729,53.9300728,-1.3279015,68.1735229,48.9801636,19.1933594,51.7364082,53.184639,-1.4482285,70.2343979,49.2507591,20.9836388,73.2903442,52.3082047,20.9821377,72.1022873,52.4199524,19.6823349,
131,70.508667,52.3688774,18.1397915,41.1610527,74.6026306,-33.4415779,53.3651047,53.520649,-0.1555451,68.6931915,48.4240761,20.2691154,50.8897209,53.9132957,-3.0235748,69.7771378,49.6933289,20.0838127,73.4570389,52.0575027,21.3995342,72.8745422,51.5853462,21.2891922,
132,70.3810883,52.2503662,18.130724,41.1610527,74.6026306,-33.4415779,53.5487747,53.2427139,0.3060616,67.3689346,49.0733109,18.2956238,51.5756073,53.2494431,-1.6738361,69.8763123,49.7893028,20.0870113,74.6009216,51.4129868,23.1879311,71.9659424,52.2981758,19.6677647,
133,70.3556137,52.6004906,17.7551193,40.7339897,74.7747345,-34.0407486,53.554554,53.3423424,0.2122114,68.3816833,48.6651688,19.7165127,51.0689163,53.7391243,-2.6702073,69.6594238,49.6116219,20.047802,72.3323059,53.0681419,19.2641659,72.4531708,51.2521706,21.2010002,
134,70.80867,51.914917,18.8937492,40.360527,75.3398743,-34.9793472,52.2252083,53.6741638,-1.4489558,67.4341736,49.6383743,17.7958031,51.8973656,53.2149315,-1.3175671,70.6912613,48.5636482,22.1276131,75.9615555,50.8646393,25.0969181,72.7320175,51.4728546,21.2591629,
135,70.6362534,52.4873924,18.1488609,41.0512352,74.6468887,-33.5956497,53.0607033,53.4394073,-0.3787042,68.2783356,48.5912666,19.6870651,55.6935577,47.0561714,8.6373863,70.5739594,48.7400665,21.8338909,74.434227,51.6636887,22.7705345,72.696022,52.1806717,20.5153465,
136,69.9595947,52.5901604,17.3694305,40.7339897,74.7747345,-34.0407486,52.4987793,53.8697853,-1.3710043,67.9592361,49.3044205,18.6548176,50.4073143,54.1077118,-3.700398,70.9205017,48.7227592,22.1977406,73.7551041,52.68507,21.070034,72.8745422,51.5853462,21.2891922,
137,70.6046524,52.8467827,17.7578697,40.0994987,75.0304413,-34.9309425,52.8828125,53.8169746,-0.9341611,68.3816833,48.6651688,19.7165127,50.3024864,54.3470726,-4.0445852,69.3194733,49.8777733,19.4417,74.2675323,51.9143906,22.3531399,73.3257523,51.2335777,22.0921764,
138,70.80867,51.914917,18.8937492,40.9536209,74.6862259,-33.7326012,51.8578644,54.2300339,-2.3721693,68.4850311,48.7390709,19.7459621,50.7167015,54.078186,-3.3614833,70.2224426,49.5138702,20.7085743,74.2669449,51.5475807,22.7193604,73.0170593,51.6978378,21.3192215,
139,69.2696533,53.0381393,16.2315159,41.1610527,74.6026306,-33.4415779,52.963089,53.4787483,-0.5156573,68.6924591,48.6554756,20.0369873,51.3662605,53.9183655,-2.5521038,70.9205017,48.7227592,22.1977406,73.4211273,52.819664,20.6014633,73.4806442,51.3410835,22.1395588,
140,71.2097321,52.2562752,18.9534607,40.7339897,74.7747345,-34.0407486,52.7858429,53.6521378,-0.8662947,67.8620148,49.2212563,18.6407566,50.6848526,53.5132599,-2.8284092,70.692482,49.32444,21.368042,74.7614365,51.1715698,23.5898666,72.4351501,51.592495,20.8426571,
141,71.362793,52.024662,19.3381329,40.7339897,74.7747345,-34.0407486,53.6406097,53.1037445,0.5368649,67.7662048,48.6889038,19.0772972,52.3298378,52.7551613,-0.4253226,71.6379318,48.4336319,23.204298,74.4078064,50.6275711,23.7802372,72.0657654,52.8017159,19.2640495,
142,69.4942932,53.2942657,16.2000275,40.0994987,75.0304413,-34.9309425,52.963089,53.4787483,-0.5156573,68.4850311,48.7390709,19.7459621,50.642334,54.0129967,-3.3706636,70.1290512,49.1640663,20.964983,73.9335556,52.0489845,21.8845692,71.3542252,52.9049492,18.4492798,
143,71.3699493,51.6887169,19.6812305,41.1610527,74.6026306,-33.4415779,52.6824493,53.5918465,-0.9093977,68.2783356,48.5912666,19.6870651,50.7470055,53.6785355,-2.9315298,70.6854782,48.8174744,21.8680058,73.6119461,52.1785965,21.4333534,72.2808075,51.8246269,20.4561787,
144,70.6362534,52.4873924,18.1488609,41.3806839,74.5141144,-33.1334305,52.3089867,54.1569824,-1.847998,68.1666718,49.2208252,18.9458427,51.4588699,53.7790871,-2.3202171,71.1555176,48.6280441,22.5274754,73.6237335,51.8068008,21.8169308,71.9659424,52.2981758,19.6677647,
145,71.956665,51.1260033,20.8306599,41.2708664,74.5583725,-33.2875061,52.2239189,54.0825119,-1.8585949,67.460083,49.1521301,18.3079529,51.6617355,52.9292488,-1.2675159,71.2794113,48.7004662,22.5789452,74.7614365,51.1715698,23.5898666,72.7320175,51.4728546,21.2591629,
146,70.6749649,51.8056679,18.8692951,40.9536209,74.6862259,-33.7326012,52.5052032,53.7652359,-1.260035,67.7715912,48.9110374,18.8605556,50.5119858,53.7732506,-3.2612641,69.7590103,49.9657249,19.7932892,74.2675323,51.9143906,22.3531399,71.8661575,51.821804,20.0443516,
147,70.112648,52.3585472,17.7541027,40.8438072,74.730484,-33.886673,54.1229019,52.8074226,1.3154809,68.9120941,48.5669632,20.3451309,50.9821777,53.6789169,-2.6967418,71.2794113,48.7004662,22.5789452,73.9447708,51.323967,22.6208038,72.8565369,51.9392548,20.917284,
148,69.5380936,52.9299583,16.6081371,40.5265617,74.8583298,-34.3317719,53.1525421,53.3004417,-0.1479008,68.3762894,48.4430351,19.9332542,51.5453033,53.6490936,-2.1037896,70.2343979,49.2507591,20.9836388,74.1002502,51.7982826,22.3019657,73.0052567,52.0560493,20.9492092,
149,70.9556046,51.6925697,19.2630348,40.7339897,74.7747345,-34.0407486,53.2501526,53.2611008,-0.0109477,67.8620148,49.2212563,18.6407566,51.3844986,53.7138977,-2.3293974,69.8763123,49.7893028,20.0870113,74.9348907,51.2783928,23.6564999,71.7118073,52.053936,19.6578751,
150,71.0699539,52.1426773,18.9272728,40.7339897,74.7747345,-34.0407486,52.5052032,53.7652359,-1.260035,67.9668198,48.8323593,19.1344624,51.3163033,53.6394234,-2.3231184,70.0051575,49.0916481,20.9135113,75.1021729,51.3945007,23.707674,72.4351501,51.592495,20.8426571,
151,70.2595901,52.1362,18.1233883,40.9536209,74.6862259,-33.7326012,52.1333694,53.8131294,-1.6797591,68.4857635,48.5076714,19.9780903,51.1068306,54.2268333,-3.1200035,70.240181,48.996933,21.2432461,73.9447708,51.323967,22.6208038,72.696022,52.1806717,20.5153465,
152,70.7893143,52.2557793,18.5335331,40.8438072,74.730484,-33.886673,53.1756554,53.6989555,-0.5233017,68.5891113,48.5815735,20.0075378,51.563694,53.5397224,-1.9760298,70.0051575,49.0916481,20.9135113,74.6009216,51.4129868,23.1879311,71.8054199,52.5395927,19.2658272,
153,71.5168839,51.4663696,20.0505161,40.624176,74.8189926,-34.1948204,52.9688683,53.5783768,-0.6095076,68.3809509,48.8965683,19.4843845,51.5754547,53.1543427,-1.5788897,69.8944473,49.5169067,20.3775368,73.1477966,52.1821251,20.9656734,73.3257523,51.2335777,22.0921764,
154,69.9911499,52.244381,17.746767,40.4167442,74.9025879,-34.4858437,52.5052032,53.7652359,-1.260035,68.1688614,48.5266304,19.6422291,50.8031349,53.9481926,-3.145056,69.7590103,49.9657249,19.7932892,74.7681961,51.5290947,23.2391052,73.1657791,51.8146324,21.3511448,
155,70.5280228,52.0280151,18.5000095,40.3069305,74.946846,-34.6399155,52.591259,53.5266418,-0.9353814,68.3762894,48.4430351,19.9332542,50.6106339,53.5431709,-2.9325359,70.3516998,49.074337,21.2773628,73.9453354,51.6771889,22.2681465,72.2808075,51.8246269,20.4561787,
156,70.3810883,52.2503662,18.130724,40.7339897,74.7747345,-34.0407486,52.2235718,54.1914063,-1.967832,68.0694427,49.137661,18.9317818,51.0928917,53.2536583,-2.1607664,69.999794,49.6035995,20.3961926,74.434227,51.6636887,22.7705345,72.5895004,51.360363,21.2291336,
157,70.9423676,52.0241661,18.9182053,41.0512352,74.6468887,-33.5956497,53.7324448,52.9647789,0.7676683,68.3816833,48.6651688,19.7165127,51.5068207,52.8081589,-1.3013355,70.3513107,48.8297997,21.5215111,74.434227,51.6636887,22.7705345,71.768898,52.9213562,18.8475418,
158,69.6911545,52.6983452,16.9928093,41.2708664,74.5583725,-33.2875061,54.1229019,52.8074226,1.3154809,68.1742554,48.748764,19.4254875,51.167263,53.3188477,-2.1515861,71.0456543,49.5831413,21.462513,74.4274597,51.3061638,23.1212978,73.6349869,51.1089516,22.5260372,
159,70.0749741,52.7135925,17.3613796,41.3148422,74.1396179,-32.8247757,52.8828125,53.8169746,-0.9341611,67.9592361,49.3044205,18.6548176,50.8637619,53.1624756,-2.2987125,71.1555176,48.6280441,22.5274754,73.1477966,52.1821251,20.9656734,71.5574646,52.286068,19.2713966,
160,70.508667,52.3688774,18.1397915,40.624176,74.8189926,-34.1948204,53.1525421,53.3004417,-0.1479008,68.8080139,48.7244606,20.0835552,51.9094276,53.0197487,-1.1103199,69.7771378,49.6933289,20.0838127,73.9453354,51.6771889,22.2681465,71.6387253,52.7902946,18.8484325,
161,70.6046524,52.8467827,17.7578697,40.8438072,74.730484,-33.886673,53.5372162,53.043457,0.493762,67.5634308,49.2260323,18.3374023,50.2149658,53.7977905,-3.5828242,72.1203384,48.2392159,23.8811207,73.7786407,51.9278946,21.85075,73.1714096,51.4657097,21.705698,
162,71.2230072,51.9110641,19.311945,40.624176,74.8189926,-34.1948204,53.2617111,53.4603577,-0.1986481,68.5891113,48.5815735,20.0075378,50.9821777,53.6789169,-2.6967418,69.8940277,49.2587814,20.6352482,76.3202744,50.7200737,25.6001968,72.720192,51.8174782,20.9027138,
163,70.0749741,52.7135925,17.3613796,40.8438072,74.730484,-33.886673,52.8661232,53.3139114,-0.4477909,67.8627396,48.9898567,18.8728848,51.0806732,53.3537407,-2.2730672,69.8944473,49.5169067,20.3775368,74.1002502,51.7982826,22.3019657,73.1714096,51.4657097,21.705698,
164,71.1025391,51.4702187,19.6323204,41.1610527,74.6026306,-33.4415779,52.8824692,53.9258652,-1.0433983,68.2768707,49.0540657,19.2228069,52.7626152,52.4855881,0.2770291,69.4664917,48.9348907,20.5315971,74.6009216,51.4129868,23.1879311,72.5776749,51.7049866,20.8726845,
165,70.5280228,52.0280151,18.5000095,40.5265617,74.8583298,-34.3317719,52.7858429,53.6521378,-0.8662947,68.4857635,48.5076714,19.9780903,51.0063057,53.2885513,-2.2822475,72.3487701,47.8956604,24.4531078,74.7614365,51.1715698,23.5898666,72.2628098,52.1785355,20.0842705,
166,71.5158539,51.7930489,19.722805,40.9536209,74.6862259,-33.7326012,53.2385979,53.0618439,0.1767528,68.3816833,48.6651688,19.7165127,51.9836464,52.9898376,-1.0061933,68.423111,50.5041008,17.9190083,74.4348145,52.0304985,22.404314,71.8419647,52.1714134,19.6705494,
167,70.508667,52.3688774,18.1397915,40.5265617,74.8583298,-34.3317719,54.2946739,52.4391212,1.855551,68.1742554,48.748764,19.4254875,51.5454559,53.7441902,-2.1987362,70.4397659,49.9632607,20.4765072,74.1002502,51.7982826,22.3019657,71.7118073,52.053936,19.6578751,
168,70.6749649,51.8056679,18.8692951,40.2093163,74.9861832,-34.7768707,52.871254,53.6177177,-0.7464607,68.5891113,48.5815735,20.0075378,50.6727867,53.7084427,-3.0356565,69.4367752,49.7013512,19.7354221,73.6119461,52.1785965,21.4333534,72.3991547,52.300312,20.0988407,
169,69.5380936,52.9299583,16.6081371,40.2093163,74.9861832,-34.7768707,52.9582596,53.0796623,-0.1214051,68.5883789,48.812973,19.7754097,51.4890213,53.2843361,-1.7953172,70.4574585,49.4191551,21.0383072,73.766861,52.2996864,21.4671726,73.3257523,51.2335777,22.0921764,
170,69.4227142,52.8065262,16.616188,40.0994987,75.0304413,-34.9309425,52.5919037,53.3224678,-0.7305619,67.966095,49.0637589,18.9023342,49.5720596,54.2472076,-4.675148,70.4516983,49.6865654,20.7651367,73.766861,52.2996864,21.4671726,71.4638748,51.8139954,19.6498795,
171,70.6749649,51.8056679,18.8692951,40.0994987,75.0304413,-34.9309425,52.0351143,54.0566444,-2.0215318,67.6682434,48.8371391,18.8311081,50.8215256,53.8388214,-3.0172961,70.69207,49.0663147,21.6257534,74.7681961,51.5290947,23.2391052,71.1551819,52.2782593,18.8769245,
172,71.2230072,51.9110641,19.311945,40.2093163,74.9861832,-34.7768707,53.1583176,53.4000702,-0.241751,68.2783356,48.5912666,19.6870651,51.3460197,52.872963,-1.5269431,69.8944473,49.5169067,20.3775368,74.1058578,51.4357719,22.6700821,72.4351501,51.592495,20.8426571,
173,70.5280228,52.0280151,18.5000095,40.0994987,75.0304413,-34.9309425,53.1467628,53.2008133,-0.0540506,68.1742554,48.748764,19.4254875,50.9640923,53.9784851,-3.0143948,70.6912613,48.5636482,22.1276131,74.2675323,51.9143906,22.3531399,71.8054199,52.5395927,19.2658272,
174,70.5280228,52.0280151,18.5000095,40.8438072,74.730484,-33.886673,52.4987793,53.8697853,-1.3710043,68.1688614,48.5266304,19.6422291,50.9200249,53.5136452,-2.5936213,69.4607086,49.1887169,20.2719917,74.434227,51.6636887,22.7705345,70.9519272,52.8835564,18.0683708,
175,71.8046341,51.0309372,20.7736988,41.0512352,74.6468887,-33.5956497,52.3215332,54.0431747,-1.7216418,68.3816833,48.6651688,19.7165127,51.6617355,52.9292488,-1.2675159,69.5363617,50.0554543,19.4809093,74.4274597,51.3061638,23.1212978,71.9963074,51.9392815,20.0570259,
176,70.3556137,52.6004906,17.7551193,40.624176,74.8189926,-34.1948204,52.6021729,53.9300728,-1.3279015,68.1742554,48.748764,19.4254875,51.2236977,53.7787018,-2.5550051,69.0158005,49.6127167,19.4030838,74.2619476,52.2904854,21.9714584,72.7320175,51.4728546,21.2591629,
177,70.6749649,51.8056679,18.8692951,41.0512352,74.6468887,-33.5956497,52.8828125,53.8169746,-0.9341611,67.8627396,48.9898567,18.8728848,51.7991943,53.7438927,-1.9446983,70.4628296,48.9072037,21.5556259,74.1008377,52.1650925,21.9357433,73.1714096,51.4657097,21.705698,
178,71.3831787,51.3571205,20.0260601,40.2093163,74.9861832,-34.7768707,52.6021729,53.9300728,-1.3279015,68.1735229,48.9801636,19.1933594,49.1711731,55.1088753,-5.9377012,70.5743484,48.9846077,21.5897427,74.0991135,51.091835,23.0072803,72.5293274,52.4313736,20.0979519,
179,71.1035309,51.1571503,19.9463768,40.360527,75.3398743,-34.9793472,53.629055,52.9044876,0.7245654,68.6924591,48.6554756,20.0369873,51.0446548,54.0479736,-3.003319,70.3397446,49.3374481,21.0022964,74.5959167,52.1558914,22.4400272,74.2467422,50.5293503,23.7173939,
180,70.0433731,53.0729828,16.9703884,40.5265617,74.8583298,-34.3317719,53.5661087,53.5415993,0.024511,68.4857635,48.5076714,19.9780903,50.4073143,54.1077118,-3.700398,69.6536636,49.8790321,19.7746315,74.7687912,51.8959045,22.8728828,72.8565369,51.9392548,20.917284,
181,70.9556046,51.6925697,19.2630348,40.9536209,74.6862259,-33.7326012,53.0780411,53.7382965,-0.6602548,68.1735229,48.9801636,19.1933594,50.6802483,54.5007057,-3.8204598,71.1489334,48.3792038,22.7697277,73.6237335,51.8068008,21.8169308,71.8419647,52.1714134,19.6705494,
182,69.4942932,53.2942657,16.2000275,40.624176,74.8189926,-34.1948204,53.2729263,53.7685089,-0.4955856,68.2776031,48.8226662,19.454937,50.7972679,54.1476746,-3.3504078,69.8940277,49.2587814,20.6352482,72.9204788,53.218544,19.7019348,72.5596771,52.0588951,20.5007782,
183,70.6362534,52.4873924,18.1488609,40.0432816,75.4677277,-35.4244461,53.462719,53.4813118,-0.018592,68.9120941,48.5669632,20.3451309,50.3013992,53.6677971,-3.3663969,71.1555176,48.6280441,22.5274754,74.2675323,51.9143906,22.3531399,72.8863602,51.2407227,21.6456413,
184,70.3556137,52.6004906,17.7551193,40.624176,74.8189926,-34.1948204,53.7497826,53.2636642,0.4861177,67.9736328,48.6053085,19.3683243,50.5121384,53.8683472,-3.3562105,69.7825089,49.1813774,20.6011314,75.1021729,51.3945007,23.707674,71.9963074,51.9392815,20.0570259,
185,70.6749649,51.8056679,18.8692951,41.0512352,74.6468887,-33.5956497,53.8416176,53.1246948,0.716921,68.1742554,48.748764,19.4254875,50.8654633,54.2221489,-3.3566868,69.1091919,49.9625168,19.1466732,74.5959167,52.1558914,22.4400272,71.1551819,52.2782593,18.8769245,
186,69.6911545,52.6983452,16.9928093,40.624176,74.8189926,-34.1948204,52.8718987,53.4135399,-0.5416411,67.6682434,48.8371391,18.8311081,52.1625557,52.6390533,-0.4764966,70.1170959,49.4271774,20.6899166,72.9811096,52.432827,20.5482769,73.4800949,51.0014458,22.478653,
187,70.5280228,52.0280151,18.5000095,40.7339897,74.7747345,-34.0407486,53.1525421,53.3004417,-0.1479008,68.6931915,48.4240761,20.2691154,50.437767,53.8031578,-3.3653908,69.1091919,49.9625168,19.1466732,74.2669449,51.5475807,22.7193604,73.628273,50.7785988,22.8496723,
188,70.6617279,52.1372643,18.5244637,41.2050247,74.183876,-32.9788475,52.6824493,53.5918465,-0.9093977,68.5837173,48.3594398,20.2242813,50.5985718,53.7383537,-3.1397831,69.6536636,49.8790321,19.7746315,74.4274597,51.3061638,23.1212978,72.5776749,51.7049866,20.8726845,
189,70.7893143,52.2557793,18.5335331,41.5222702,74.0560226,-32.5337486,53.4396057,53.0827942,0.3568089,67.031517,49.8006477,17.2308712,50.6607246,53.9036255,-3.2429037,71.5272141,48.8588905,22.6683216,74.7614365,51.1715698,23.5898666,71.8661575,51.821804,20.0443516,
190,70.0749741,52.7135925,17.3613796,41.2050247,74.183876,-32.9788475,54.3418884,52.9230843,1.418806,68.0694427,49.137661,18.9317818,50.702961,53.2272797,-2.5243204,70.5743484,48.9846077,21.5897427,73.3144913,51.9314232,21.38307,72.15065,51.7071495,20.4435043,
191,70.9423676,52.0241661,18.9182053,40.9536209,74.6862259,-33.7326012,53.3593254,53.4210205,-0.0616949,67.9592361,49.3044205,18.6548176,51.9094276,53.0197487,-1.1103199,70.4570465,49.1610298,21.2960186,74.9219589,50.9301529,23.9918041,72.2808075,51.8246269,20.4561787,
192,70.2280273,52.4819794,17.7460518,40.7339897,74.7747345,-34.0407486,53.2559319,53.3607292,-0.1047979,67.3491516,49.5502892,17.7988605,50.7470055,53.6785355,-2.9315298,71.9840775,48.1717796,23.8122959,74.9354782,51.6452026,23.2902794,73.0170593,51.6978378,21.3192215,
193,70.0749741,52.7135925,17.3613796,40.4167442,74.9025879,-34.4858437,53.7324448,52.9647789,0.7676683,67.6416092,49.5547791,18.0868282,51.2295647,53.5792198,-2.3496532,69.5363617,50.0554543,19.4809093,75.6152115,51.0042191,24.6109943,71.6814423,52.4128304,19.2686119,
194,69.9219131,52.9452057,16.9767075,40.8438072,74.730484,-33.886673,53.4453812,53.1824226,0.2629586,67.8627396,48.9898567,18.8728848,50.3462715,54.6352997,-4.2890296,70.1290512,49.1640663,20.964983,74.1008377,52.1650925,21.9357433,72.5895004,51.360363,21.2291336,
195,70.3556137,52.6004906,17.7551193,40.5265617,74.8583298,-34.3317719,53.7266693,52.8651505,0.8615185,67.8627396,48.9898567,18.8728848,50.5863533,53.8384361,-3.252084,69.7767258,49.4352036,20.341526,74.1058578,51.4357719,22.6700821,70.6185379,53.3849602,17.2335796,
196,71.362793,52.024662,19.3381329,41.0512352,74.6468887,-33.5956497,52.7694511,53.0537949,-0.2843421,68.3762894,48.4430351,19.9332542,51.2416306,53.384037,-2.142406,69.5540771,49.5249329,20.0291462,74.2669449,51.5475807,22.7193604,72.5895004,51.360363,21.2291336,
197,71.8097229,51.3483505,20.4613743,40.3069305,74.946846,-34.6399155,52.6940079,53.7911072,-1.0970981,68.5891113,48.5815735,20.0075378,51.0687637,53.6440239,-2.5752609,71.1489334,48.3792038,22.7697277,75.6152115,51.0042191,24.6109943,73.1657791,51.8146324,21.3511448,
198,69.6911545,52.6983452,16.9928093,39.6968422,75.1927185,-35.4958725,53.3477669,53.2217636,0.1260055,67.966095,49.0637589,18.9023342,49.9057274,53.9224129,-4.016685,71.6189728,48.1897736,23.4291954,74.4348145,52.0304985,22.404314,72.5776749,51.7049866,20.8726845,
199,69.9595947,52.5901604,17.3694305,39.0013428,75.4730072,-36.4716644,52.8670654,53.0144577,-0.1473889,67.8756714,48.75354,19.1221333,50.2769661,53.8679619,-3.5909984,70.692482,49.32444,21.368042,74.420723,50.9622269,23.4584961,72.23246,52.5510139,19.6814442,
200,69.8442154,52.466732,17.3774815,39.9042702,75.1091232,-35.2048492,52.7800636,53.5525093,-0.7724445,68.077713,48.4478111,19.6299,49.7766228,54.4570427,-4.6804209,69.6536636,49.8790321,19.7746315,73.4750137,51.6900063,21.7850056,72.8863602,51.2407227,21.6456413,
201,70.80867,51.914917,18.8937492,39.7944565,75.1533737,-35.3589211,53.1525421,53.3004417,-0.1479008,68.4857635,48.5076714,19.9780903,49.7022552,54.3918533,-4.6896009,70.0117493,49.3404884,20.6712589,74.6015091,51.7797966,22.8217087,72.3991547,52.300312,20.0988407,
202,71.1903381,52.6107483,18.5795879,40.5705338,74.4395752,-33.8690453,53.909996,52.696106,1.2138882,68.1688614,48.5266304,19.6422291,50.1905327,53.9979553,-3.807426,70.0117493,49.3404884,20.6712589,73.1236496,52.5589066,20.564743,71.1551819,52.2782593,18.8769245,
203,70.7893143,52.2557793,18.5335331,40.2654915,74.5625153,-34.2970238,52.499424,53.6656075,-1.1661848,67.9736328,48.6053085,19.3683243,50.8456535,53.4484558,-2.6028016,71.0316315,48.5556259,22.4760036,74.1002502,51.7982826,22.3019657,73.6349869,51.1089516,22.5260372,
204,71.3699493,51.6887169,19.6812305,40.3069305,74.946846,-34.6399155,53.646389,53.203373,0.4430147,67.7586594,49.1473541,18.6113071,50.1285324,53.927784,-3.7992518,71.5016708,48.3661957,23.1354733,74.2663727,51.194355,23.0720196,72.5776749,51.7049866,20.8726845,
205,70.0749741,52.7135925,17.3613796,40.0994987,75.0304413,-34.9309425,52.0486031,53.6433792,-1.5947735,68.4850311,48.7390709,19.7459621,50.6605721,53.8085289,-3.1479573,69.6594238,49.6116219,20.047802,74.7681961,51.5290947,23.2391052,72.720192,51.8174782,20.9027138,
206,69.4542694,52.4607468,16.9935246,40.7339897,74.7747345,-34.0407486,53.629055,52.9044876,0.7245654,68.3816833,48.6651688,19.7165127,49.7328606,54.1823997,-4.4495401,69.4815826,50.6281013,18.8534813,73.4570389,52.0575027,21.3995342,73.0170593,51.6978378,21.3192215,
207,70.80867,51.914917,18.8937492,40.7339897,74.7747345,-34.0407486,52.9579582,53.1749458,-0.2169876,67.5641632,48.9946327,18.5695305,50.7106819,54.1825676,-3.471889,69.4367752,49.7013512,19.7354221,74.5959167,52.1558914,22.4400272,71.9963074,51.9392815,20.0570259,
208,70.3556137,52.6004906,17.7551193,41.2050247,74.183876,-32.9788475,53.6171532,52.8141251,0.8030287,68.4857635,48.5076714,19.9780903,51.1550446,53.4189301,-2.2638869,70.6854782,48.8174744,21.8680058,74.2663727,51.194355,23.0720196,73.3257523,51.2335777,22.0921764,
209,70.7893143,52.2557793,18.5335331,40.9536209,74.6862259,-33.7326012,53.1467628,53.2008133,-0.0540506,67.8756714,48.75354,19.1221333,50.6607246,53.9036255,-3.2429037,70.796608,48.6503372,22.1462708,74.2669449,51.5475807,22.7193604,72.720192,51.8174782,20.9027138,
210,71.3841705,51.0440521,20.3401165,40.9853935,74.2723846,-33.2869911,52.8776779,53.5131683,-0.6354913,68.2783356,48.5912666,19.6870651,50.9942398,53.4837341,-2.4894948,69.8944473,49.5169067,20.3775368,74.1002502,51.7982826,22.3019657,73.3257523,51.2335777,22.0921764,
211,69.8442154,52.466732,17.3774815,41.0512352,74.6468887,-33.5956497,53.8242798,52.8258095,0.9984717,68.5891113,48.5815735,20.0075378,50.9943924,53.5788345,-2.5844412,69.5421219,49.788044,19.7540798,74.1058578,51.4357719,22.6700821,71.8054199,52.5395927,19.2658272,
212,70.6362534,52.4873924,18.1488609,40.3069305,74.946846,-34.6399155,53.4511604,53.2820511,0.1691084,68.0709,48.6748619,19.39604,50.7167015,54.078186,-3.3614833,70.8097839,49.1480179,21.6617641,75.4102783,50.563427,24.8468513,71.2729645,52.4007225,18.8722458,
213,70.6749649,51.8056679,18.8692951,41.095211,74.2281342,-33.1329193,53.9276733,52.8861008,1.0415746,67.6545792,49.3048515,18.3497314,51.8109322,53.3449249,-1.5339946,68.9857101,50.1482201,18.837492,74.1002502,51.7982826,22.3019657,72.8745422,51.5853462,21.2891922,
214,70.9423676,52.0241661,18.9182053,40.624176,74.8189926,-34.1948204,52.8551674,52.9240913,-0.0689256,69.1202545,48.2519684,20.8682861,50.1163139,54.0278664,-3.9115527,70.3397446,49.3374481,21.0022964,72.838562,52.3067513,20.5318127,72.4233246,51.9371185,20.486208,
215,70.3810883,52.2503662,18.130724,40.624176,74.8189926,-34.1948204,52.0421791,53.7479248,-1.705743,68.3809509,48.8965683,19.4843845,51.5875168,52.9591599,-1.3716425,70.6854782,48.8174744,21.8680058,73.766861,52.2996864,21.4671726,72.4351501,51.592495,20.8426571,
216,69.8442154,52.466732,17.3774815,40.8438072,74.730484,-33.886673,53.0436707,53.0452423,-0.0015711,68.0709,48.6748619,19.39604,51.8228416,53.0546455,-1.2318009,71.2794113,48.7004662,22.5789452,74.5879822,51.0647469,23.5232353,71.7118073,52.053936,19.6578751,
217,70.80867,51.914917,18.8937492,40.3069305,74.946846,-34.6399155,53.9899292,52.466774,1.5231549,68.2768707,49.0540657,19.2228069,51.494606,52.9082413,-1.4136362,69.999794,49.6035995,20.3961926,73.0052567,52.0560493,20.9492092,72.3991547,52.300312,20.0988407,
218,70.2850266,51.7996864,18.4853382,40.4167442,74.9025879,-34.4858437,53.0549278,53.3397789,-0.284854,68.578331,48.1373062,20.4410229,50.3330956,54.137619,-3.8045247,68.781189,49.9655571,18.8156376,74.9354782,51.6452026,23.2902794,72.8745422,51.5853462,21.2891922,
219,69.8889618,51.8029671,18.0859947,41.0512352,74.6468887,-33.5956497,53.599472,52.6241302,0.9753422,67.5634308,49.2260323,18.3374023,50.9823303,53.7740173,-2.7916884,70.1170959,49.4271774,20.6899166,72.838562,52.3067513,20.5318127,71.1124496,52.6421394,18.4703083,
220,71.2362442,51.5794678,19.6567745,40.5265617,74.8583298,-34.3317719,53.9661293,52.2860451,1.6800815,68.5883789,48.812973,19.7754097,50.3513336,53.9331512,-3.5818183,71.3839493,48.2844887,23.0994625,73.766861,52.2996864,21.4671726,72.720192,51.8174782,20.9027138,
221,69.8442154,52.466732,17.3774815,40.5265617,74.8583298,-34.3317719,52.7752304,53.1534233,-0.3781922,67.5634308,49.2260323,18.3374023,51.2295647,53.5792198,-2.3496532,71.0316315,48.5556259,22.4760036,74.9348907,51.2783928,23.6564999,72.3168488,51.1439781,21.1728668,
222,70.7893143,52.2557793,18.5335331,40.8438072,74.730484,-33.886673,53.3651047,53.520649,-0.1555451,68.5837173,48.3594398,20.2242813,51.7365608,53.2797356,-1.5431749,70.4574585,49.4191551,21.0383072,73.9279709,52.4250793,21.5028877,71.3969421,52.5274849,18.8694611,
223,70.5280228,52.0280151,18.5000095,40.4167442,74.9025879,-34.4858437,53.4338264,52.9831657,0.4506591,67.5634308,49.2260323,18.3374023,51.8110847,53.4400253,-1.6289409,70.2343979,49.2507591,20.9836388,74.7614365,51.1715698,23.5898666,73.1657791,51.8146324,21.3511448,
224,71.2362442,51.5794678,19.6567745,40.7339897,74.7747345,-34.0407486,54.3239098,52.828373,1.495537,67.7586594,49.1473541,18.6113071,51.6620407,53.1194496,-1.4574087,69.8763123,49.7893028,20.0870113,73.1477966,52.1821251,20.9656734,71.9659424,52.2981758,19.6677647,
225,69.9911499,52.244381,17.746767,40.4167442,74.9025879,-34.4858437,52.963089,53.4787483,-0.5156573,68.0701752,48.9062614,19.1639099,52.0706902,53.240242,-1.1695514,70.3397446,49.3374481,21.0022964,73.1477966,52.1821251,20.9656734,71.5574646,52.286068,19.2713966,
226,70.2280273,52.4819794,17.7460518,40.7339897,74.7747345,-34.0407486,52.6888733,53.4873009,-0.7984283,68.3816833,48.6651688,19.7165127,50.8714828,54.1177635,-3.2462811,70.0117493,49.3404884,20.6712589,73.2903442,52.3082047,20.9821377,72.7320175,51.4728546,21.2591629,
227,70.3810883,52.2503662,18.130724,40.3069305,74.946846,-34.6399155,53.5137596,52.7538338,0.7599258,68.3816833,48.6651688,19.7165127,50.4498329,53.607975,-3.1581435,71.0250397,48.3067856,22.718256,74.0991135,51.091835,23.0072803,72.15065,51.7071495,20.4435043,
228,70.0165863,51.9078674,18.108717,40.7339897,74.7747345,-34.0407486,53.4338264,52.9831657,0.4506591,67.3689346,49.0733109,18.2956238,51.7364082,53.184639,-1.4482285,71.9774857,47.9229393,24.0545483,72.6718674,52.5574532,20.1144161,72.7376709,51.137516,21.600153,
229,70.112648,52.3585472,17.7541027,40.624176,74.8189926,-34.1948204,54.587513,52.3211021,2.2664104,67.5641632,48.9946327,18.5695305,52.0705376,53.1451416,-1.074605,70.4574585,49.4191551,21.0383072,74.4274597,51.3061638,23.1212978,73.0288849,51.3532143,21.6756687,
230,71.1025391,51.4702187,19.6323204,40.5265617,74.8583298,-34.3317719,52.9582596,53.0796623,-0.1214051,67.9736328,48.6053085,19.3683243,50.9078064,53.6137314,-2.7059221,70.2343979,49.2507591,20.9836388,73.6237335,51.8068008,21.8169308,71.8054199,52.5395927,19.2658272,
231,69.4542694,52.4607468,16.9935246,41.2050247,74.183876,-32.9788475,54.3803864,52.3094177,2.0709674,67.5634308,49.2260323,18.3374023,50.9823303,53.7740173,-2.7916884,70.69207,49.0663147,21.6257534,74.1008377,52.1650925,21.9357433,72.2808075,51.8246269,20.4561787,
232,69.5380936,52.9299583,16.6081371,41.2050247,74.183876,-32.9788475,52.407589,53.8045769,-1.3969882,68.2776031,48.8226662,19.454937,51.9091225,52.8295517,-0.9204271,70.3339844,49.6048584,20.729126,74.1002502,51.7982826,22.3019657,72.8565369,51.9392548,20.917284,
233,69.9595947,52.5901604,17.3694305,40.0018845,75.0697784,-35.067894,52.1404381,53.5044098,-1.3639702,68.5891113,48.5815735,20.0075378,50.9200249,53.5136452,-2.5936213,69.7771378,49.6933289,20.0838127,74.8966751,50.6004829,24.2961903,71.8054199,52.5395927,19.2658272,
234,69.8442154,52.466732,17.3774815,40.7339897,74.7747345,-34.0407486,54.0018311,52.5571404,1.4446915,67.7586594,49.1473541,18.6113071,52.5031624,52.7804718,-0.2773069,70.0109406,48.837822,21.1731186,72.9507828,52.8188934,20.1318874,71.6814423,52.4128304,19.2686119,
235,71.0893097,51.8018188,19.2874908,40.668148,74.400238,-33.73209,52.2261543,53.3747063,-1.1485537,68.0709,48.6748619,19.39604,50.3330956,54.137619,-3.8045247,70.5797424,48.4862442,22.0934963,74.434227,51.6636887,22.7705345,72.2628098,52.1785355,20.0842705,
236,70.2280273,52.4819794,17.7460518,40.7339897,74.7747345,-34.0407486,53.2559319,53.3607292,-0.1047979,68.5837173,48.3594398,20.2242813,52.0016022,52.608757,-0.6071579,71.0316315,48.5556259,22.4760036,74.4274597,51.3061638,23.1212978,72.1022873,52.4199524,19.6823349,
237,69.0511017,52.7863617,16.2647381,40.8438072,74.730484,-33.886673,53.9276733,52.8861008,1.0415746,68.0709,48.6748619,19.39604,50.6969185,53.3180771,-2.6211619,70.0109406,48.837822,21.1731186,73.9279709,52.4250793,21.5028877,72.2808075,51.8246269,20.4561787,
238,70.916893,52.3742905,18.5426006,41.0512352,74.6468887,-33.5956497,53.738224,53.0644073,0.6738181,67.6682434,48.8371391,18.8311081,52.322773,52.2074394,0.1153329,70.796608,48.6503372,22.1462708,74.1002502,51.7982826,22.3019657,72.8745422,51.5853462,21.2891922,
239,71.3831787,51.3571205,20.0260601,40.668148,74.400238,-33.73209,52.8776779,53.5131683,-0.6354913,67.7715912,48.9110374,18.8605556,51.5754547,53.1543427,-1.5788897,70.5739594,48.7400665,21.8338909,73.3144913,51.9314232,21.38307,71.6387253,52.7902946,18.8484325,
240,69.6911545,52.6983452,16.9928093,40.5705338,74.4395752,-33.8690453,52.3179893,53.2357368,-0.9177504,67.9668198,48.8323593,19.1344624,51.9150162,52.6436539,-0.7286389,70.0109406,48.837822,21.1731186,73.6119461,52.1785965,21.4333534,72.2808075,51.8246269,20.4561787,
241,69.8696442,52.1302147,17.7394314,41.095211,74.2281342,-33.1329193,52.7807083,53.3483353,-0.5676249,67.8756714,48.75354,19.1221333,50.1285324,53.927784,-3.7992518,69.4610977,49.4332542,20.0278435,73.6237335,51.8068008,21.8169308,71.9963074,51.9392815,20.0570259,
242,70.2595901,52.1362,18.1233883,41.3148422,74.1396179,-32.8247757,53.3362122,53.0225067,0.3137059,68.785759,48.0537109,20.732048,51.390522,53.6095123,-2.218992,68.9857101,50.1482201,18.837492,73.766861,52.2996864,21.4671726,72.8745422,51.5853462,21.2891922,
243,70.112648,52.3585472,17.7541027,41.6320877,74.0117645,-32.3796768,53.3651047,53.520649,-0.1555451,68.0709,48.6748619,19.39604,51.6379089,53.5098152,-1.8719031,69.3495789,49.3558502,19.9937267,73.6355362,51.4485893,22.1869431,71.1917496,51.9236641,19.2680836,
244,70.9423676,52.0241661,18.9182053,41.095211,74.2281342,-33.1329193,52.8661232,53.3139114,-0.4477909,68.578331,48.1373062,20.4410229,51.9094276,53.0197487,-1.1103199,71.495079,48.1173553,23.3777256,72.4233246,51.9371185,20.486208,71.3969421,52.5274849,18.8694611,
245,70.3810883,52.2503662,18.130724,40.155674,74.6067734,-34.4510956,52.9579582,53.1749458,-0.2169876,67.460083,49.1521301,18.3079529,50.2027473,53.8978729,-3.6951251,70.5743484,48.9846077,21.5897427,74.2663727,51.194355,23.0720196,72.0205002,51.5896721,20.43083,
246,70.112648,52.3585472,17.7541027,40.9853935,74.2723846,-33.2869911,53.061348,53.2352333,-0.1738846,67.460083,49.1521301,18.3079529,51.2417831,53.4791336,-2.2373524,70.2224426,49.5138702,20.7085743,73.1657791,51.8146324,21.3511448,71.3969421,52.5274849,18.8694611,
247,70.6749649,51.8056679,18.8692951,40.7339897,74.7747345,-34.0407486,52.6021729,53.9300728,-1.3279015,68.0709,48.6748619,19.39604,52.2430992,52.6949577,-0.4518573,69.8940277,49.2587814,20.6352482,75.2688675,51.1437988,24.1250706,70.4518433,53.6356621,16.816185,
248,70.112648,52.3585472,17.7541027,41.4124565,74.1002808,-32.6878242,52.963089,53.4787483,-0.5156573,68.5837173,48.3594398,20.2242813,52.0818596,52.4880486,-0.4061896,70.0117493,49.3404884,20.6712589,74.2534637,50.8597031,23.3937588,71.5816574,51.9364586,19.6452007,
249,70.4065247,51.9138527,18.4926739,41.5222702,74.0560226,-32.5337486,52.689518,53.2831268,-0.5936087,67.4730148,48.9158173,18.5572014,51.8226891,52.9595451,-1.1368545,70.3513107,48.8297997,21.5215111,73.6349869,51.1089516,22.5260372,72.15065,51.7071495,20.4435043,
250,69.8065338,52.8217735,16.9847584,41.7419052,73.9675064,-32.225605,53.4161453,52.7931747,0.6229726,68.0709,48.6748619,19.39604,52.3232079,52.4791489,-0.1559425,69.1269302,49.4455795,19.6813469,73.3144913,51.9314232,21.38307,72.7376709,51.137516,21.600153,
251,71.5239944,51.1440353,20.3799591,42.3031845,73.7413101,-31.4381256,53.909996,52.696106,1.2138882,67.9736328,48.6053085,19.3683243,51.581192,52.8733482,-1.2921551,69.6536636,49.8790321,19.7746315,73.3144913,51.9314232,21.38307,73.6277466,50.4525452,23.1752033,
252,70.2280273,52.4819794,17.7460518,41.5222702,74.0560226,-32.5337486,53.8923149,52.506115,1.3862017,68.3762894,48.4430351,19.9332542,51.7244987,53.4749184,-1.750422,69.4607086,49.1887169,20.2719917,74.434227,51.6636887,22.7705345,71.8054199,52.5395927,19.2658272,
253,71.3699493,51.6887169,19.6812305,42.2836151,74.1502304,-31.8666153,55.4050331,51.9916382,3.413393,68.2783356,48.5912666,19.6870651,53.1095734,52.7264023,0.3831678,70.2343979,49.2507591,20.9836388,73.4452591,52.4292984,21.0159588,73.4795761,50.6753922,22.804184,
254,70.9627151,51.3702354,19.5924778,42.5228157,73.6527939,-31.1299801,54.4660988,52.1797142,2.2863839,67.5641632,48.9946327,18.5695305,52.6763344,52.7106819,-0.0343447,69.4610977,49.4332542,20.0278435,72.814415,52.6835327,20.1308823,72.8745422,51.5853462,21.2891922,
255,70.6617279,52.1372643,18.5244637,42.6448326,73.6036224,-30.9587898,53.5314407,52.9438286,0.5876122,68.0709,48.6748619,19.39604,52.1514053,53.4048309,-1.2534223,69.6833572,49.0989876,20.5843716,73.1477966,52.1821251,20.9656734,71.8419647,52.1714134,19.6705494,
256,69.9595947,52.5901604,17.3694305,42.3031845,73.7413101,-31.4381256,54.2262955,52.8677101,1.3585839,68.791153,48.2758446,20.5153065,51.5756073,53.2494431,-1.6738361,70.4570465,49.1610298,21.2960186,73.1477966,52.1821251,20.9656734,73.0288849,51.3532143,21.6756687,
257,69.5380936,52.9299583,16.6081371,41.8517189,73.9232559,-32.0715332,52.9695129,53.3742027,-0.404688,68.1688614,48.5266304,19.6422291,51.5127144,52.622261,-1.1095473,70.4574585,49.4191551,21.0383072,73.9335556,52.0489845,21.8845692,72.7320175,51.4728546,21.2591629,
258,69.6012115,52.2383995,17.3628101,41.7101326,74.3813477,-32.6712151,53.2385979,53.0618439,0.1767528,67.8756714,48.75354,19.1221333,52.330143,52.9453583,-0.6152154,70.8097839,49.1480179,21.6617641,74.9348907,51.2783928,23.6564999,72.8565369,51.9392548,20.917284,
259,69.154274,52.9147072,16.2395668,41.9615364,73.8789978,-31.9174614,53.1583176,53.4000702,-0.241751,68.1742554,48.748764,19.4254875,51.1671104,53.2237473,-2.0566397,70.3397446,49.3374481,21.0022964,75.0763016,50.6980209,24.3782825,72.8863602,51.2407227,21.6456413,
260,70.80867,51.914917,18.8937492,41.8517189,73.9232559,-32.0715332,53.4338264,52.9831657,0.4506591,68.3715897,48.0031166,20.3684711,51.897213,53.1198311,-1.2226207,70.1290512,49.1640663,20.964983,75.0954132,51.0369759,24.0584373,73.1827087,50.7950287,22.3876781,
261,69.8442154,52.466732,17.3774815,42.0713501,73.8347397,-31.7633896,52.871254,53.6177177,-0.7464607,68.0701752,48.9062614,19.1639099,52.6760292,52.5204811,0.1555481,70.5747681,49.242733,21.3320313,73.9453354,51.6771889,22.2681465,73.6349869,51.1089516,22.5260372,
262,70.3810883,52.2503662,18.130724,41.5222702,74.0560226,-32.5337486,54.0018311,52.5571404,1.4446915,68.5837173,48.3594398,20.2242813,52.0818596,52.4880486,-0.4061896,70.4628296,48.9072037,21.5556259,73.4570389,52.0575027,21.3995342,73.0288849,51.3532143,21.6756687,
263,70.3810883,52.2503662,18.130724,40.9853935,74.2723846,-33.2869911,53.4161453,52.7931747,0.6229726,68.0709,48.6748619,19.39604,52.168293,52.3580551,-0.1897621,70.4492798,48.1785698,22.2707157,74.4274597,51.3061638,23.1212978,72.4351501,51.592495,20.8426571,
264,69.9595947,52.5901604,17.3694305,41.5222702,74.0560226,-32.5337486,53.5195389,52.8534622,0.6660755,68.4803696,48.2855377,20.1948318,51.8229942,53.1497421,-1.3267473,70.5739594,48.7400665,21.8338909,73.0170593,51.6978378,21.3192215,71.2729645,52.4007225,18.8722458,
265,70.2595901,52.1362,18.1233883,41.4905014,74.4698563,-32.9793587,53.587574,52.5337677,1.0538056,68.4803696,48.2855377,20.1948318,52.2434044,52.8851547,-0.6417501,69.8944473,49.5169067,20.3775368,73.7786407,51.9278946,21.85075,72.15065,51.7071495,20.4435043,
266,69.8065338,52.8217735,16.9847584,41.6320877,74.0117645,-32.3796768,53.8066025,52.6358185,1.1707852,68.1688614,48.5266304,19.6422291,51.9094276,53.0197487,-1.1103199,70.0117493,49.3404884,20.6712589,74.4274597,51.3061638,23.1212978,71.4273148,52.1685905,19.2587223,
267,70.2595901,52.1362,18.1233883,42.0713501,73.8347397,-31.7633896,54.2147369,52.6684532,1.5462843,68.3762894,48.4430351,19.9332542,51.0689163,53.7391243,-2.6702073,70.240181,48.996933,21.2432461,73.0052567,52.0560493,20.9492092,72.3991547,52.300312,20.0988407,
268,71.3841705,51.0440521,20.3401165,42.193367,73.7855682,-31.5921974,54.1344604,53.0066795,1.1277806,67.9668198,48.8323593,19.1344624,52.3299904,52.8502579,-0.520269,71.4094925,48.7771835,22.6323109,73.6237335,51.8068008,21.8169308,71.1124496,52.6421394,18.4703083,
269,71.2362442,51.5794678,19.6567745,41.8321495,74.3321762,-32.5000229,54.5399094,51.9596481,2.5802636,68.0701752,48.9062614,19.1639099,52.1560783,52.4581413,-0.3020629,70.4628296,48.9072037,21.5556259,74.7294159,50.497963,24.231451,72.8745422,51.5853462,21.2891922,
270,69.9911499,52.244381,17.746767,41.5222702,74.0560226,-32.5337486,53.2443771,53.1614723,0.0829026,68.1742554,48.748764,19.4254875,52.9229851,52.1490707,0.7739123,70.6912613,48.5636482,22.1276131,73.4750137,51.6900063,21.7850056,71.8661575,51.821804,20.0443516,
271,72.2495041,51.0079842,21.2415199,41.5222702,74.0560226,-32.5337486,53.6406097,53.1037445,0.5368649,67.1737061,49.151989,18.0217171,52.0822983,52.7597618,-0.677465,71.0443878,48.7951775,22.2492104,75.2688675,51.1437988,24.1250706,73.3262939,51.5732155,21.7530823,
272,69.7227097,52.3525658,17.3701458,40.8877792,74.3117294,-33.4239464,53.061348,53.2352333,-0.1738846,68.1756744,48.2995796,19.876091,51.9209061,52.457756,-0.5368509,70.0989685,49.6995735,20.3993912,73.7786407,51.9278946,21.85075,72.3050003,51.4750175,20.8299828,
273,69.1165924,53.2697525,15.8468437,41.6320877,74.0117645,-32.3796768,53.0607033,53.4394073,-0.3787042,68.3762894,48.4430351,19.9332542,52.6632271,52.2537575,0.409469,70.5743484,48.9846077,21.5897427,73.6237335,51.8068008,21.8169308,72.7320175,51.4728546,21.2591629,
274,70.508667,52.3688774,18.1397915,41.5222702,74.0560226,-32.5337486,53.1698761,53.5993271,-0.4294514,67.9736328,48.6053085,19.3683243,52.3233604,52.5742493,-0.2508889,69.0786896,50.2398987,18.8387947,72.8565369,51.9392548,20.917284,71.6387253,52.7902946,18.8484325,
275,70.1380844,52.0220337,18.1160526,41.8517189,73.9232559,-32.0715332,53.8066025,52.6358185,1.1707852,67.6750565,48.6100883,19.0649681,51.9841042,53.275135,-1.2910324,69.6833572,49.0989876,20.5843716,72.838562,52.3067513,20.5318127,73.0288849,51.3532143,21.6756687,
276,70.2595901,52.1362,18.1233883,41.4124565,74.1002808,-32.6878242,52.2187843,53.7787094,-1.5599251,68.0709,48.6748619,19.39604,51.4891739,53.3794365,-1.8902636,70.0109406,48.837822,21.1731186,73.6237335,51.8068008,21.8169308,71.5816574,51.9364586,19.6452007,
277,70.2595901,52.1362,18.1233883,41.7419052,73.9675064,-32.225605,53.8358383,53.0250664,0.8107713,68.3762894,48.4430351,19.9332542,51.8107796,53.2498283,-1.4390482,69.7590103,49.9657249,19.7932892,73.4570389,52.0575027,21.3995342,72.8863602,51.2407227,21.6456413,
278,70.0749741,52.7135925,17.3613796,40.8096924,73.9557571,-33.1460648,52.4082336,53.6004028,-1.1921686,67.3757477,48.8462601,18.5294857,51.8344727,52.5877495,-0.7532783,68.9347992,49.2715149,19.6632824,73.9453354,51.6771889,22.2681465,71.3542252,52.9049492,18.4492798,
279,70.1380844,52.0220337,18.1160526,41.5222702,74.0560226,-32.5337486,53.8300591,52.9254379,0.9046215,68.0709,48.6748619,19.39604,52.2426643,52.4232445,-0.1805819,70.6854782,48.8174744,21.8680058,73.0170593,51.6978378,21.3192215,72.8745422,51.5853462,21.2891922,
280,70.1380844,52.0220337,18.1160526,41.7419052,73.9675064,-32.225605,52.689518,53.2831268,-0.5936087,67.9689255,48.16539,19.8035393,52.1568184,52.9200478,-0.7632312,69.6594238,49.6116219,20.047802,73.9453354,51.6771889,22.2681465,71.3969421,52.5274849,18.8694611,
281,70.2595901,52.1362,18.1233883,41.4905014,74.4698563,-32.9793587,53.629055,52.9044876,0.7245654,68.2783356,48.5912666,19.6870651,51.390522,53.6095123,-2.218992,69.8940277,49.2587814,20.6352482,72.5293274,52.4313736,20.0979519,71.8419647,52.1714134,19.6705494,
282,70.2595901,52.1362,18.1233883,41.0512352,74.6468887,-33.5956497,52.9582596,53.0796623,-0.1214051,68.077713,48.4478111,19.6299,51.3401299,53.0588608,-1.7187313,69.8006592,48.9225655,20.8780937,74.7423248,50.8326149,23.9097118,72.8915176,50.5929184,22.2985973,
283,70.112648,52.3585472,17.7541027,41.5222702,74.0560226,-32.5337486,53.0500946,52.9406967,0.1093983,68.2729416,48.369133,19.9038067,50.9198723,53.4185486,-2.4986749,70.4628296,48.9072037,21.5556259,73.7898788,51.2164574,22.5734196,71.8054199,52.5395927,19.2658272,
284,72.6719513,50.3687325,22.303215,40.9536209,74.6862259,-33.7326012,52.597683,53.4220963,-0.8244121,68.3708954,48.2209015,20.1499977,52.0818596,52.4880486,-0.4061896,69.6594238,49.6116219,20.047802,74.4274597,51.3061638,23.1212978,71.9963074,51.9392815,20.0570259,
285,70.4258347,51.5866013,18.8392372,41.6320877,74.0117645,-32.3796768,53.0436707,53.0452423,-0.0015711,67.870285,48.5314064,19.3388748,51.7362556,53.0895386,-1.353282,70.0117493,49.3404884,20.6712589,74.5879822,51.0647469,23.5232353,71.7360077,51.7043266,20.0316772,
286,70.2595901,52.1362,18.1233883,42.0713501,73.8347397,-31.7633896,53.2443771,53.1614723,0.0829026,67.4798279,48.6887665,18.7910633,51.8107796,53.2498283,-1.4390482,70.2270279,48.5128365,21.7141876,73.6355362,51.4485893,22.1869431,71.5209198,52.6542473,18.8666763,
287,71.2230072,51.9110641,19.311945,41.9615364,73.8789978,-31.9174614,52.4140129,53.7000313,-1.2860188,68.2783356,48.5912666,19.6870651,52.081707,52.392952,-0.3112431,70.1213074,48.1951942,21.926115,74.6009216,51.4129868,23.1879311,71.9659424,52.2981758,19.6677647,
288,69.8442154,52.466732,17.3774815,41.7419052,73.9675064,-32.225605,53.2501526,53.2611008,-0.0109477,68.1666718,49.2208252,18.9458427,50.8215256,53.8388214,-3.0172961,69.5363617,50.0554543,19.4809093,73.7842484,51.5653839,22.2188663,71.8661575,51.821804,20.0443516,
289,70.80867,51.914917,18.8937492,41.095211,74.2281342,-33.1329193,53.23312,52.8669357,0.3661854,68.578331,48.1373062,20.4410229,51.5127144,52.622261,-1.1095473,69.3194733,49.8777733,19.4417,73.1657791,51.8146324,21.3511448,71.1124496,52.6421394,18.4703083,
290,70.6617279,52.1372643,18.5244637,41.095211,74.2281342,-33.1329193,53.0664825,53.5390358,-0.4725544,68.1688614,48.5266304,19.6422291,51.5869293,52.59235,-1.0054207,70.1290512,49.1640663,20.964983,73.7786407,51.9278946,21.85075,71.0008392,52.5103912,18.490448,
291,70.4258347,51.5866013,18.8392372,40.0580597,74.6461105,-34.588047,52.7807083,53.3483353,-0.5676249,67.7586594,49.1473541,18.6113071,51.2654762,52.8170586,-1.5515825,69.4607086,49.1887169,20.2719917,75.0510178,50.368351,24.6826668,72.4351501,51.592495,20.8426571,
292,69.9595947,52.5901604,17.3694305,41.095211,74.2281342,-33.1329193,52.9637337,53.2745743,-0.3108378,68.578331,48.1373062,20.4410229,50.4742661,53.4078064,-2.9335418,69.7771378,49.6933289,20.0838127,73.1832275,51.1210823,22.0621471,72.1264572,52.0567589,20.0697021,
293,69.6012115,52.2383995,17.3628101,40.8877792,74.3117294,-33.4239464,52.5906143,53.7308159,-1.140201,69.1202545,48.2519684,20.8682861,51.5127144,52.622261,-1.1095473,69.7767258,49.4352036,20.341526,73.3144913,51.9314232,21.38307,72.4531708,51.2521706,21.2010002,
294,69.9595947,52.5901604,17.3694305,41.4124565,74.1002808,-32.6878242,52.9695129,53.3742027,-0.404688,67.5709763,48.7675819,18.8033924,52.1560783,52.4581413,-0.3020629,69.1959915,50.0634766,19.1325169,72.696022,52.1806717,20.5153465,73.7697449,50.2389832,23.5307617,
295,70.5666504,51.3735161,19.1931343,40.7779655,74.3559799,-33.5780182,53.2212181,52.7765694,0.4446488,67.8709717,48.3136215,19.5573502,51.5810394,52.7782478,-1.1972088,69.0786896,50.2398987,18.8387947,73.0052567,52.0560493,20.9492092,72.1264572,52.0567589,20.0697021,
296,70.112648,52.3585472,17.7541027,40.8877792,74.3117294,-33.4239464,53.2956314,52.3659401,0.9296935,67.6682434,48.8371391,18.8311081,50.702961,53.2272797,-2.5243204,68.5404129,50.3276825,18.2127323,72.6415482,52.9435196,19.6980267,71.3095322,52.0461273,19.2634029,
297,70.2850266,51.7996864,18.4853382,40.2654915,74.5625153,-34.2970238,52.6721382,52.9978523,-0.3257127,67.870285,48.5314064,19.3388748,51.2536964,53.1888542,-1.9351587,70.4686127,48.6533775,21.8152332,72.814415,52.6835327,20.1308823,71.8841782,51.4814796,20.4026966,
298,69.7481461,52.0160484,17.7320957,41.5222702,74.0560226,-32.5337486,52.7742844,53.4528809,-0.6785943,68.2729416,48.369133,19.9038067,51.0987816,53.0677605,-1.9689783,69.6713791,49.3485107,20.3228683,74.2669449,51.5475807,22.7193604,71.8419647,52.1714134,19.6705494,
299,70.5280228,52.0280151,18.5000095,41.5222702,74.0560226,-32.5337486,53.4164467,52.6978912,0.7185551,67.4798279,48.6887665,18.7910633,51.5753021,53.0592461,-1.4839433,70.1170959,49.4271774,20.6899166,73.4570389,52.0575027,21.3995342,71.2729645,52.4007225,18.8722458,
300,70.6942749,51.4784203,19.2158566,41.6320877,74.0117645,-32.3796768,52.5000687,53.4614334,-0.9613652,68.5837173,48.3594398,20.2242813,52.5766411,52.2886505,0.287988,68.4536057,50.2267189,18.2268887,74.420723,50.9622269,23.4584961,72.5895004,51.360363,21.2291336,
301,70.4258347,51.5866013,18.8392372,41.5222702,74.0560226,-32.5337486,52.9637337,53.2745743,-0.3108378,68.077713,48.4478111,19.6299,52.1624031,52.5439529,-0.3815502,70.0117493,49.3404884,20.6712589,74.434227,51.6636887,22.7705345,71.4638748,51.8139954,19.6498795,
302,69.8696442,52.1302147,17.7394314,41.6320877,74.0117645,-32.3796768,53.7947006,52.5454521,1.2492485,67.8756714,48.75354,19.1221333,50.9501953,53.0324821,-2.0822852,70.5739594,48.7400665,21.8338909,74.2669449,51.5475807,22.7193604,72.8745422,51.5853462,21.2891922,
303,70.8350906,51.2653351,19.5697556,41.095211,74.2281342,-33.1329193,52.8661232,53.3139114,-0.4477909,68.1742554,48.748764,19.4254875,51.1730003,53.0378494,-1.8648516,71.1555176,48.6280441,22.5274754,73.4806442,51.3410835,22.1395588,71.33992,51.7008171,19.639101,
304,69.6012115,52.2383995,17.3628101,41.1610527,74.6026306,-33.4415779,52.9582596,53.0796623,-0.1214051,68.2783356,48.5912666,19.6870651,52.6504211,51.98703,0.66339,69.8944473,49.5169067,20.3775368,73.6237335,51.8068008,21.8169308,72.4531708,51.2521706,21.2010002,
305,70.5280228,52.0280151,18.5000095,42.0713501,73.8347397,-31.7633896,53.9218941,52.7864723,1.1354249,67.4730148,48.9158173,18.5572014,51.0808258,53.4488411,-2.3680136,70.8818436,47.77314,23.1087055,74.7681961,51.5290947,23.2391052,71.7360077,51.7043266,20.0316772,
306,69.8442154,52.466732,17.3774815,41.7419052,73.9675064,-32.225605,53.9218941,52.7864723,1.1354249,67.460083,49.1521301,18.3079529,51.4769554,53.4795189,-2.0025644,70.1170959,49.4271774,20.6899166,74.9219589,50.9301529,23.9918041,72.15065,51.7071495,20.4435043,
307,69.8696442,52.1302147,17.7394314,41.8517189,73.9232559,-32.0715332,53.3307343,52.8275948,0.5031386,68.0709,48.6748619,19.39604,51.0824165,54.4405861,-3.3581688,71.2666473,48.4609108,22.8057384,73.2903442,52.3082047,20.9821377,71.9659424,52.2981758,19.6677647,
308,71.1025391,51.4702187,19.6323204,41.2050247,74.183876,-32.9788475,53.5195389,52.8534622,0.6660755,68.785759,48.0537109,20.732048,52.168293,52.3580551,-0.1897621,70.1290512,49.1640663,20.964983,73.3144913,51.9314232,21.38307,72.4351501,51.592495,20.8426571,
309,70.2850266,51.7996864,18.4853382,40.9853935,74.2723846,-33.2869911,53.0436707,53.0452423,-0.0015711,68.4803696,48.2855377,20.1948318,52.5895958,52.6504745,-0.0608794,71.2666473,48.4609108,22.8057384,73.7898788,51.2164574,22.5734196,71.8054199,52.5395927,19.2658272,
310,69.1980362,52.5640106,16.6340218,41.4124565,74.1002808,-32.6878242,53.8923149,52.506115,1.3862017,67.8756714,48.75354,19.1221333,50.821373,53.7437248,-2.9223497,70.4516983,49.6865654,20.7651367,73.7786407,51.9278946,21.85075,72.8863602,51.2407227,21.6456413,
311,70.4065247,51.9138527,18.4926739,41.2050247,74.183876,-32.9788475,53.1531868,53.0962677,0.0569188,67.5709763,48.7675819,18.8033924,52.0011635,52.3370476,-0.3358825,69.8944473,49.5169067,20.3775368,74.9348907,51.2783928,23.6564999,73.4750137,51.6900063,21.7850056,
312,69.3073349,52.683094,16.624239,41.2050247,74.183876,-32.9788475,52.7575531,52.9634323,-0.2058787,67.8756714,48.75354,19.1221333,50.7106819,54.1825676,-3.471889,68.8684082,50.3246422,18.5437679,75.0954132,51.0369759,24.0584373,72.7320175,51.4728546,21.2591629,
313,69.8442154,52.466732,17.3774815,40.5705338,74.4395752,-33.8690453,52.2203751,53.2750778,-1.0547035,67.1737061,49.151989,18.0217171,51.3846512,53.8089981,-2.4243438,70.0117493,49.3404884,20.6712589,74.1002502,51.7982826,22.3019657,72.5596771,52.0588951,20.5007782,
314,70.5280228,52.0280151,18.5000095,40.9536209,74.6862259,-33.7326012,53.0549278,53.3397789,-0.284854,68.1756744,48.2995796,19.876091,51.1968651,52.4844589,-1.2875919,70.6912613,48.5636482,22.1276131,73.1236496,52.5589066,20.564743,72.5776749,51.7049866,20.8726845,
315,69.9595947,52.5901604,17.3694305,40.8877792,74.3117294,-33.4239464,51.956768,53.7823448,-1.8255769,67.966095,49.0637589,18.9023342,52.0758171,52.5788498,-0.5030313,71.3650131,48.0542183,23.3107967,73.9447708,51.323967,22.6208038,72.1022873,52.4199524,19.6823349,
316,69.9911499,52.244381,17.746767,41.4124565,74.1002808,-32.6878242,52.9579582,53.1749458,-0.2169876,68.2736282,48.1513481,20.1222801,52.4168816,53.0055618,-0.5886807,71.5272141,48.8588905,22.6683216,74.7423248,50.8326149,23.9097118,72.8745422,51.5853462,21.2891922,
317,70.4065247,51.9138527,18.4926739,41.2050247,74.183876,-32.9788475,53.3477669,53.2217636,0.1260055,68.5837173,48.3594398,20.2242813,52.322773,52.2074394,0.1153329,70.0117493,49.3404884,20.6712589,74.2669449,51.5475807,22.7193604,71.8661575,51.821804,20.0443516,
318,71.3831787,51.3571205,20.0260601,41.6320877,74.0117645,-32.3796768,53.8123817,52.7354469,1.0769351,67.5709763,48.7675819,18.8033924,52.5897484,52.745575,-0.1558258,70.2343979,49.2507591,20.9836388,73.9335556,52.0489845,21.8845692,71.5574646,52.286068,19.2713966,
319,69.7227097,52.3525658,17.3701458,40.8877792,74.3117294,-33.4239464,53.629055,52.9044876,0.7245654,67.8756714,48.75354,19.1221333,52.1572762,53.2053452,-1.0480703,68.5709152,50.0503006,18.5206108,72.8565369,51.9392548,20.917284,72.5776749,51.7049866,20.8726845,
320,70.1380844,52.0220337,18.1160526,41.5222702,74.0560226,-32.5337486,52.2187843,53.7787094,-1.5599251,67.1607742,49.3883057,17.7724705,51.8285828,52.7736473,-0.9450665,69.7825089,49.1813774,20.6011314,73.9453354,51.6771889,22.2681465,72.4531708,51.2521706,21.2010002,
321,70.157402,51.6947823,18.462616,41.4124565,74.1002808,-32.6878242,53.7089882,52.6751556,1.0338321,67.4730148,48.9158173,18.5572014,51.8285828,52.7736473,-0.9450665,69.6891403,48.8451614,20.843977,73.7786407,51.9278946,21.85075,72.0205002,51.5896721,20.43083,
322,69.154274,52.9147072,16.2395668,41.2708664,74.5583725,-33.2875061,53.8066025,52.6358185,1.1707852,67.9668198,48.8323593,19.1344624,52.4034653,52.3584404,0.0450258,69.6713791,49.3485107,20.3228683,73.3144913,51.9314232,21.38307,72.1805191,51.0357857,21.1447334,
323,69.8889618,51.8029671,18.0859947,40.7779655,74.3559799,-33.5780182,53.4164467,52.6978912,0.7185551,67.870285,48.5314064,19.3388748,52.5701599,52.1077385,0.4624217,69.5540771,49.5249329,20.0291462,74.420723,50.9622269,23.4584961,72.5895004,51.360363,21.2291336,
324,70.8218994,51.5833206,19.2385807,40.7779655,74.3559799,-33.5780182,52.597683,53.4220963,-0.8244121,68.1756744,48.2995796,19.876091,52.2437096,53.0753517,-0.8316429,70.5797424,48.4862442,22.0934963,72.0657654,52.8017159,19.2640495,73.4795761,50.6753922,22.804184,
325,70.112648,52.3585472,17.7541027,40.668148,74.400238,-33.73209,52.9527817,52.8847542,0.0680276,67.5641632,48.9946327,18.5695305,52.0016022,52.608757,-0.6071579,71.644516,48.6824722,22.9620457,74.1002502,51.7982826,22.3019657,72.7376709,51.137516,21.600153,
326,69.8696442,52.1302147,17.7394314,40.9853935,74.2723846,-33.2869911,52.3170433,53.5351944,-1.2181524,67.7662048,48.6889038,19.0772972,51.7484741,52.9894562,-1.2409812,69.1091919,49.9625168,19.1466732,73.6237335,51.8068008,21.8169308,71.7118073,52.053936,19.6578751,
327,70.5280228,52.0280151,18.5000095,40.8438072,74.730484,-33.886673,52.9524803,52.9800339,-0.0275549,67.4798279,48.6887665,18.7910633,51.5810394,52.7782478,-1.1972088,70.240181,48.996933,21.2432461,73.4750137,51.6900063,21.7850056,71.8841782,51.4814796,20.4026966,
328,69.4542694,52.4607468,16.9935246,41.095211,74.2281342,-33.1329193,52.8606453,53.1190033,-0.2583582,67.8756714,48.75354,19.1221333,51.3338013,52.9730453,-1.639244,69.1211472,49.6994057,19.4217396,73.0170593,51.6978378,21.3192215,73.4795761,50.6753922,22.804184,
329,69.8696442,52.1302147,17.7394314,40.9853935,74.2723846,-33.2869911,52.8725433,53.2093658,-0.3368216,67.9736328,48.6053085,19.3683243,50.6850052,53.6083603,-2.9233556,70.4496765,48.4231071,22.0265675,72.838562,52.3067513,20.5318127,72.15065,51.7071495,20.4435043,
330,69.4227142,52.8065262,16.616188,40.3631058,74.5231705,-34.1600685,53.0436707,53.0452423,-0.0015711,68.3708954,48.2209015,20.1499977,52.2425117,52.3281479,-0.0856355,70.5608063,48.2559738,22.3048325,74.420723,50.9622269,23.4584961,71.8661575,51.821804,20.0443516,
331,70.5280228,52.0280151,18.5000095,40.4607201,74.4838333,-34.0231171,52.3163986,53.7393684,-1.422972,68.5837173,48.3594398,20.2242813,51.581192,52.8733482,-1.2921551,70.6854782,48.8174744,21.8680058,75.2559357,50.7955589,24.4603748,72.4351501,51.592495,20.8426571,
332,69.5380936,52.9299583,16.6081371,40.155674,74.6067734,-34.4510956,52.1404381,53.5044098,-1.3639702,67.8756714,48.75354,19.1221333,52.0822983,52.7597618,-0.677465,70.9139099,48.4739189,22.4399929,73.9453354,51.6771889,22.2681465,72.4351501,51.592495,20.8426571,
333,70.1380844,52.0220337,18.1160526,40.668148,74.400238,-33.73209,53.1531868,53.0962677,0.0569188,67.3757477,48.8462601,18.5294857,52.4965324,52.5044594,-0.0079268,69.4610977,49.4332542,20.0278435,74.4078064,50.6275711,23.7802372,72.3050003,51.4750175,20.8299828,
334,70.2595901,52.1362,18.1233883,40.3069305,74.946846,-34.6399155,52.597683,53.4220963,-0.8244121,68.578331,48.1373062,20.4410229,52.6567459,52.0728455,0.5839027,68.9166489,49.5303268,19.386322,73.4570389,52.0575027,21.3995342,70.4565811,52.7297287,17.7268524,
335,69.9595947,52.5901604,17.3694305,39.7530174,74.769043,-35.0160255,51.9509888,53.6827164,-1.7317268,67.8756714,48.75354,19.1221333,51.5063858,52.5364456,-1.0300601,70.2270279,48.5128365,21.7141876,73.3144913,51.9314232,21.38307,72.8745422,51.5853462,21.2891922,
336,69.8696442,52.1302147,17.7394314,39.0697174,75.0444183,-35.9746971,51.6029167,53.9249496,-2.3220322,67.4798279,48.6887665,18.7910633,50.4742661,53.4078064,-2.9335418,70.2270279,48.5128365,21.7141876,73.3262939,51.5732155,21.7530823,72.4531708,51.2521706,21.2010002,
337,69.8696442,52.1302147,17.7394314,39.7944565,75.1533737,-35.3589211,52.5010147,53.1619759,-0.6609632,67.7662048,48.6889038,19.0772972,50.6226997,53.3479881,-2.7252886,68.8055191,49.6974602,19.108057,74.0985718,50.7521973,23.3463764,72.4650192,50.9211311,21.5438862,
338,70.1380844,52.0220337,18.1160526,39.6968422,75.1927185,-35.4958725,52.4091797,53.3009453,-0.8917665,67.7715912,48.9110374,18.8605556,51.4321709,52.5663567,-1.1341866,70.9139099,48.4739189,22.4399929,73.6355362,51.4485893,22.1869431,71.9659424,52.2981758,19.6677647,
339,69.4542694,52.4607468,16.9935246,40.2093163,74.9861832,-34.7768707,52.8661232,53.3139114,-0.4477909,67.9736328,48.6053085,19.3683243,51.3279114,53.1589432,-1.831032,69.3495789,49.3558502,19.9937267,74.2669449,51.5475807,22.7193604,71.4273148,52.1685905,19.2587223,
340,70.5280228,52.0280151,18.5000095,40.4607201,74.4838333,-34.0231171,53.7947006,52.5454521,1.2492485,68.0701752,48.9062614,19.1639099,51.9952736,52.5229454,-0.5276706,69.23806,49.2784462,19.95961,72.3991547,52.300312,20.0988407,71.8841782,51.4814796,20.4026966,
341,70.4065247,51.9138527,18.4926739,40.3094215,74.1573715,-33.8479462,52.2235718,54.1914063,-1.967832,68.5837173,48.3594398,20.2242813,51.5063858,52.5364456,-1.0300601,69.3731384,48.6122627,20.7608795,73.3144913,51.9314232,21.38307,73.1832275,51.1210823,22.0621471,
342,70.8218994,51.5833206,19.2385807,39.7530174,74.769043,-35.0160255,52.6724396,52.9025726,-0.2301303,68.4688568,48.07267,20.3961868,51.5753021,53.0592461,-1.4839433,68.62146,50.6960526,17.9254055,74.5750656,50.7300949,23.8449745,72.3168488,51.1439781,21.1728668,
343,70.6942749,51.4784203,19.2158566,40.8877792,74.3117294,-33.4239464,53.1412849,53.0059013,0.1353821,67.6682434,48.8371391,18.8311081,52.1560783,52.4581413,-0.3020629,70.4492798,48.1785698,22.2707157,73.4452591,52.4292984,21.0159588,72.1264572,52.0567589,20.0697021,
344,69.8065338,52.8217735,16.9847584,40.5265617,74.8583298,-34.3317719,52.5058479,53.5610619,-1.0552155,68.1756744,48.2995796,19.876091,52.1565132,52.7298508,-0.5733383,69.4607086,49.1887169,20.2719917,73.1657791,51.8146324,21.3511448,73.1760101,50.4782639,22.6977482,
345,71.5168839,51.4663696,20.0505161,40.668148,74.400238,-33.73209,54.0018311,52.5571404,1.4446915,67.6750565,48.6100883,19.0649681,50.8335915,53.6436386,-2.8100488,69.3437958,49.6096764,19.7341194,73.9447708,51.323967,22.6208038,72.4650192,50.9211311,21.5438862,
346,70.1380844,52.0220337,18.1160526,41.095211,74.2281342,-33.1329193,52.7578545,52.8681488,-0.1102963,68.2729416,48.369133,19.9038067,52.2434044,52.8851547,-0.6417501,69.5722275,49.2661209,20.3061066,73.3144913,51.9314232,21.38307,73.0340118,50.6918221,22.3421898,
347,71.3831787,51.3571205,20.0260601,41.4124565,74.1002808,-32.6878242,52.2261543,53.3747063,-1.1485537,67.8756714,48.75354,19.1221333,51.2595863,53.0029564,-1.7433705,71.2600632,48.2120705,23.0479908,72.814415,52.6835327,20.1308823,71.5574646,52.286068,19.2713966,
348,69.3073349,52.683094,16.624239,40.668148,74.400238,-33.73209,52.8725433,53.2093658,-0.3368216,68.077713,48.4478111,19.6299,50.9379807,53.1325645,-2.194586,70.240181,48.996933,21.2432461,74.0991135,51.091835,23.0072803,71.9963074,51.9392815,20.0570259,
349,69.3073349,52.683094,16.624239,40.9853935,74.2723846,-33.2869911,53.3243103,52.9321404,0.3921692,67.6682434,48.8371391,18.8311081,52.1566658,52.8249512,-0.6682847,70.0109406,48.837822,21.1731186,73.6237335,51.8068008,21.8169308,73.9375076,50.6539726,23.2835331,
350,70.4258347,51.5866013,18.8392372,40.668148,74.400238,-33.73209,53.8804131,52.4157486,1.4646651,68.1688614,48.5266304,19.6422291,50.821373,53.7437248,-2.9223497,71.2600632,48.2120705,23.0479908,72.5293274,52.4313736,20.0979519,72.4650192,50.9211311,21.5438862,
351,69.9911499,52.244381,17.746767,40.624176,74.8189926,-34.1948204,53.3188324,52.7372322,0.5816019,67.870285,48.5314064,19.3388748,51.7542114,52.7084579,-0.9542466,68.8414459,48.9488831,19.8925648,73.1657791,51.8146324,21.3511448,71.7602234,51.3683014,20.3919182,
352,69.8696442,52.1302147,17.7394314,41.3148422,74.1396179,-32.8247757,54.0195084,52.7471313,1.272378,67.3757477,48.8462601,18.5294857,51.4888687,53.1892395,-1.7003708,68.9166489,49.5303268,19.386322,72.5596771,52.0588951,20.5007782,71.6120453,51.5911484,20.0208988,
353,69.3449707,52.3416634,17.0033073,41.4124565,74.1002808,-32.6878242,53.5018578,52.6634712,0.8383891,67.0825577,49.0731735,18.009388,51.8109322,53.3449249,-1.5339946,69.6825714,48.6099052,21.0726662,73.4806442,51.3410835,22.1395588,71.8841782,51.4814796,20.4026966,
354,70.2982101,51.4817009,18.8165131,41.2050247,74.183876,-32.9788475,53.5018578,52.6634712,0.8383891,68.6877975,48.2019424,20.485857,51.9836464,52.9898376,-1.0061933,69.0277786,49.3631897,19.6645851,73.4806442,51.3410835,22.1395588,72.5776749,51.7049866,20.8726845,
355,70.4258347,51.5866013,18.8392372,40.9853935,74.2723846,-33.2869911,52.3063889,53.0500908,-0.7437046,67.9736328,48.6053085,19.3683243,50.9438705,52.9466667,-2.0027978,70.69207,49.0663147,21.6257534,72.838562,52.3067513,20.5318127,72.3168488,51.1439781,21.1728668,
356,70.4258347,51.5866013,18.8392372,41.3148422,74.1396179,-32.8247757,53.5018578,52.6634712,0.8383891,67.5709763,48.7675819,18.8033924,52.4898987,52.228447,0.2614533,70.240181,48.996933,21.2432461,74.5559769,50.4047241,24.1512547,72.4351501,51.592495,20.8426571,
357,69.9911499,52.244381,17.746767,40.1019936,74.2409668,-34.1389732,53.1531868,53.0962677,0.0569188,66.9784775,49.2306709,17.7478123,50.8997154,52.4274864,-1.5277694,69.4610977,49.4332542,20.0278435,73.4806442,51.3410835,22.1395588,72.0205002,51.5896721,20.43083,
358,70.6749649,51.8056679,18.8692951,40.7120819,73.9950943,-33.2830162,53.9780273,52.3764114,1.6016182,68.3762894,48.4430351,19.9332542,51.1671104,53.2237473,-2.0566397,69.9117889,48.7554321,21.1563568,73.1832275,51.1210823,22.0621471,70.6109238,52.4975967,18.1133289,
359,70.0165863,51.9078674,18.108717,41.1269417,73.8279037,-32.7009659,53.4783592,52.3874588,1.0908982,67.2777863,48.9944954,18.2832947,50.968174,52.6649857,-1.6968136,69.8006592,48.9225655,20.8780937,73.4806442,51.3410835,22.1395588,72.6013412,51.0293236,21.5720196,
360,69.7227097,52.3525658,17.3701458,40.5046501,74.0786896,-33.5740433,51.9522362,53.2879791,-1.3357422,67.870285,48.5314064,19.3388748,50.5604172,53.1012039,-2.5407853,68.3163223,49.5207634,18.7955608,73.1657791,51.8146324,21.3511448,72.5895004,51.360363,21.2291336,
361,70.4390259,51.2686157,19.1704121,39.1673317,75.0050812,-35.8377457,52.4781151,52.6954041,-0.2172892,67.2648544,49.2308083,18.0340462,52.0687714,52.0447121,0.0240605,70.0051575,49.0916481,20.9135113,73.7898788,51.2164574,22.5734196,72.8863602,51.2407227,21.6456413,
362,69.5380936,52.9299583,16.6081371,39.6554031,74.8083801,-35.1529808,52.4775124,52.8859673,-0.4084541,67.2845993,48.7674446,18.5171566,51.5929718,52.5015526,-0.9085789,67.9767609,50.0314522,17.9453106,73.7898788,51.2164574,22.5734196,71.4273148,52.1685905,19.2587223,
363,69.7481461,52.0160484,17.7320957,39.7530174,74.769043,-35.0160255,51.5184517,53.6599159,-2.141464,68.5675049,47.7066498,20.8608513,50.6526108,52.7037964,-2.0511873,70.2335892,48.7480927,21.4854984,74.0991135,51.091835,23.0072803,71.7602234,51.3683014,20.3919182,
364,70.5666504,51.3735161,19.1931343,39.3625603,74.9263992,-35.563839,51.9528389,53.0974159,-1.1445773,67.4798279,48.6887665,18.7910633,50.0102692,53.5064392,-3.4961689,69.5834198,48.5275154,21.0559044,73.9442215,50.9843292,22.959898,72.1686707,51.3668251,20.8018494,
365,70.6749649,51.8056679,18.8692951,40.0580597,74.6461105,-34.588047,52.8670654,53.0144577,-0.1473889,67.2845993,48.7674446,18.5171566,51.5756073,53.2494431,-1.6738361,69.0575333,48.6239014,20.4336338,73.9442215,50.9843292,22.959898,72.1264572,52.0567589,20.0697021,
366,70.9627151,51.3702354,19.5924778,40.3631058,74.5231705,-34.1600685,52.7752304,53.1534233,-0.3781922,68.6762848,47.9890747,20.687212,50.702961,53.2272797,-2.5243204,69.6891403,48.8451614,20.843977,72.8745422,51.5853462,21.2891922,71.6120453,51.5911484,20.0208988,
367,69.0887375,52.4449272,16.6438065,40.2654915,74.5625153,-34.2970238,52.928978,52.7040253,0.2249542,68.077713,48.4478111,19.6299,51.3579521,52.5962677,-1.2383132,69.5830536,48.2965622,21.2864895,74.2534637,50.8597031,23.3937588,72.4531708,51.2521706,21.2010002,
368,69.6911545,52.6983452,16.9928093,40.7779655,74.3559799,-33.5780182,53.4161453,52.7931747,0.6229726,67.9689255,48.16539,19.8035393,51.2535439,53.0937538,-1.8402123,69.5780106,49.0122948,20.5657139,72.720192,51.8174782,20.9027138,71.8661575,51.821804,20.0443516,
369,70.5534592,51.6915016,18.8619595,40.7779655,74.3559799,-33.5780182,53.5640717,52.2577553,1.3063147,67.9682388,48.3831749,19.5850658,51.1971512,52.6610718,-1.463921,69.90522,48.5201759,21.385046,73.7842484,51.5653839,22.2188663,72.8858414,50.914669,21.9711704,
370,70.9627151,51.3702354,19.5924778,41.4441872,73.7000504,-32.255867,52.7694511,53.0537949,-0.2843421,68.2729416,48.369133,19.9038067,52.1619682,52.2722435,-0.1102748,69.4664917,48.9348907,20.5315971,73.7893372,50.8768196,22.9125137,72.7495193,50.8064766,21.943037,
371,69.7481461,52.0160484,17.7320957,40.9195099,73.911499,-32.9919891,53.0381927,52.8503304,0.1878616,68.2783356,48.5912666,19.6870651,52.5829659,52.3744659,0.2085007,70.0051575,49.0916481,20.9135113,73.9442215,50.9843292,22.959898,72.7320175,51.4728546,21.2591629,
372,69.7227097,52.3525658,17.3701458,41.1269417,73.8279037,-32.7009659,54.0957298,51.7648125,2.3309176,66.9852905,49.0036163,17.9816723,51.0245667,53.0976715,-2.0731049,69.3194733,49.8777733,19.4417,73.3262939,51.5732155,21.7530823,72.2808075,51.8246269,20.4561787,
373,69.3850327,53.1615715,16.223465,41.1269417,73.8279037,-32.7009659,52.7575531,52.9634323,-0.2058787,68.0709,48.6748619,19.39604,50.7714386,53.4783669,-2.7069283,69.0277786,49.3631897,19.6645851,73.6349869,51.1089516,22.5260372,71.33992,51.7008171,19.639101,
374,69.4542694,52.4607468,16.9935246,41.0171242,73.8721619,-32.8550377,52.3066902,52.9548111,-0.6481221,68.077713,48.4478111,19.6299,51.586647,52.4157372,-0.8290916,70.239006,48.2633133,21.9756908,72.4351501,51.592495,20.8426571,71.0920105,51.4744644,19.6175423,
375,71.5239944,51.1440353,20.3799591,41.3343697,73.7443085,-32.4099388,53.4164467,52.6978912,0.7185551,68.5675049,47.7066498,20.8608513,50.8696518,52.9765778,-2.1069245,70.6846924,48.328392,22.3563023,73.6349869,51.1089516,22.5260372,73.4800949,51.0014458,22.478653,
376,70.2850266,51.7996864,18.4853382,41.0171242,73.8721619,-32.8550377,53.0265923,52.6646843,0.3619074,68.4803696,48.2855377,20.1948318,51.5009308,52.9940567,-1.4931235,69.8936386,49.0142403,20.8793964,73.0170593,51.6978378,21.3192215,72.3050003,51.4750175,20.8299828,
377,69.3073349,52.683094,16.624239,40.5705338,74.4395752,-33.8690453,53.7589989,52.2743607,1.4846385,67.4798279,48.6887665,18.7910633,53.1699371,51.7776604,1.3922764,69.9117889,48.7554321,21.1563568,74.1058578,51.4357719,22.6700821,71.0008392,52.5103912,18.490448,
378,69.7481461,52.0160484,17.7320957,40.7120819,73.9950943,-33.2830162,53.4902573,52.4778252,1.0124348,68.2736282,48.1513481,20.1222801,51.426281,52.7522545,-1.3259747,69.0158005,49.6127167,19.4030838,72.696022,52.1806717,20.5153465,72.7495193,50.8064766,21.943037,
379,70.6749649,51.8056679,18.8692951,40.1019936,74.2409668,-34.1389732,52.8438683,52.6431656,0.2007027,67.3825607,48.6192093,18.7633457,51.4321709,52.5663567,-1.1341866,69.2562103,49.0196342,20.2365723,73.3257523,51.2335777,22.0921764,71.7118073,52.053936,19.6578751,
380,69.7481461,52.0160484,17.7320957,40.9195099,73.911499,-32.9919891,52.9524803,52.9800339,-0.0275549,67.5777817,48.5405312,19.0372524,52.409359,52.1725426,0.236814,69.3194733,49.8777733,19.4417,73.7898788,51.2164574,22.5734196,71.0373993,52.1557961,18.8816051,
381,69.8889618,51.8029671,18.0859947,40.668148,74.400238,-33.73209,51.9525375,53.1926956,-1.2401597,67.6682434,48.8371391,18.8311081,51.9893837,52.7088432,-0.7194588,70.3381577,48.3457031,21.9924507,73.6349869,51.1089516,22.5260372,72.8915176,50.5929184,22.2985973,
382,70.5666504,51.3735161,19.1931343,40.3631058,74.5231705,-34.1600685,53.1355057,52.9062729,0.2292323,67.9736328,48.6053085,19.3683243,50.8636093,53.0673752,-2.2037661,69.3495789,49.3558502,19.9937267,74.0991135,51.091835,23.0072803,73.0340118,50.6918221,22.3421898,
383,70.4390259,51.2686157,19.1704121,41.1269417,73.8279037,-32.7009659,53.1242065,52.6253471,0.4988605,67.4805145,48.4709778,19.0095367,51.8284302,52.6785469,-0.85012,70.9073486,48.2386627,22.6686821,72.8565369,51.9392548,20.917284,73.1760101,50.4782639,22.6977482,
384,70.1380844,52.0220337,18.1160526,40.6144676,74.0344391,-33.4199677,53.5021591,52.5681877,0.9339715,67.7715912,48.9110374,18.8605556,51.426281,52.7522545,-1.3259747,69.7940979,48.6873131,21.1067829,75.42939,50.9023819,24.5270081,70.6474915,52.1430054,18.504488,
385,68.8980408,53.0179749,15.880065,40.4070358,74.1180344,-33.7109947,52.9292793,52.6087418,0.3205367,68.1756744,48.2995796,19.876091,51.9952736,52.5229454,-0.5276706,69.0695343,48.3879623,20.681572,74.1058578,51.4357719,22.6700821,72.7495193,50.8064766,21.943037,
386,69.8889618,51.8029671,18.0859947,40.3631058,74.5231705,-34.1600685,52.3066902,52.9548111,-0.6481221,67.870285,48.5314064,19.3388748,51.5009308,52.9940567,-1.4931235,70.3381577,48.3457031,21.9924507,74.8966751,50.6004829,24.2961903,72.4233246,51.9371185,20.486208,
387,70.2982101,51.4817009,18.8165131,40.5705338,74.4395752,-33.8690453,53.9304237,52.0149536,1.9154714,67.870285,48.5314064,19.3388748,50.9198723,53.4185486,-2.4986749,70.343956,48.1054649,22.2384949,73.4800949,51.0014458,22.478653,71.6120453,51.5911484,20.0208988,
388,69.6012115,52.2383995,17.3628101,40.9853935,74.2723846,-33.2869911,53.1004028,52.4446182,0.6557872,67.5777817,48.5405312,19.0372524,51.3279114,53.1589432,-1.831032,69.9117889,48.7554321,21.1563568,72.8745422,51.5853462,21.2891922,72.4531708,51.2521706,21.2010002,
389,69.8889618,51.8029671,18.0859947,40.4607201,74.4838333,-34.0231171,53.5878716,52.4384842,1.149388,67.3825607,48.6192093,18.7633457,52.0822983,52.7597618,-0.677465,69.6883774,48.3696671,21.3187103,73.4806442,51.3410835,22.1395588,72.0323486,51.2586327,20.7737141,
390,69.5365677,51.4827728,18.0537968,40.668148,74.400238,-33.73209,52.8551674,52.9240913,-0.0689256,67.1880188,48.4801025,18.7079144,52.5443115,51.4248466,1.1194651,68.9405975,49.0312767,19.9093266,73.6237335,51.8068008,21.8169308,71.5816574,51.9364586,19.6452007,
391,70.6749649,51.8056679,18.8692951,40.4607201,74.4838333,-34.0231171,53.4902573,52.4778252,1.0124348,66.7832489,49.3093491,17.4739056,52.1560783,52.4581413,-0.3020629,70.2270279,48.5128365,21.7141876,73.9442215,50.9843292,22.959898,72.0503922,50.9318962,21.1184959,
392,71.3831787,51.3571205,20.0260601,39.4601746,74.8870621,-35.4268875,52.3921013,52.9203873,-0.5282881,68.2736282,48.1513481,20.1222801,49.8812943,54.1225815,-4.2412868,69.3731384,48.6122627,20.7608795,72.8565369,51.9392548,20.917284,71.636261,51.255127,20.3811378,
393,69.8889618,51.8029671,18.0859947,40.3631058,74.5231705,-34.1600685,53.3307343,52.8275948,0.5031386,67.5709763,48.7675819,18.8033924,51.3338013,52.9730453,-1.639244,69.6825714,48.6099052,21.0726662,73.9447708,51.323967,22.6208038,71.33992,51.7008171,19.639101,
394,70.4390259,51.2686157,19.1704121,40.0580597,74.6461105,-34.588047,53.2212181,52.7765694,0.4446488,68.1641541,48.0867119,20.077446,52.4090729,51.9959297,0.413143,69.2562103,49.0196342,20.2365723,74.7423248,50.8326149,23.9097118,70.6798019,52.9932251,17.6865749,
395,70.2982101,51.4817009,18.8165131,40.3631058,74.5231705,-34.1600685,53.1239052,52.7206268,0.4032781,68.077713,48.4478111,19.6299,51.185215,52.937767,-1.7525508,70.0167465,48.5975838,21.4191628,74.0991135,51.091835,23.0072803,72.0205002,51.5896721,20.43083,
396,69.2610626,51.8996773,17.3613873,39.3625603,74.9263992,-35.563839,52.746254,52.6825027,0.0637495,67.7662048,48.6889038,19.0772972,51.0421066,52.4584656,-1.4163579,68.4332581,49.1133881,19.3198681,73.1714096,51.4657097,21.705698,72.4702148,50.300499,22.169714,
397,69.7735367,51.6931458,18.0803909,39.8506317,74.7297058,-34.8790741,52.6256981,52.2688789,0.3568158,67.8709717,48.3136215,19.5573502,50.7771759,53.1973686,-2.4201937,68.3163223,49.5207634,18.7955608,74.0856781,50.4311256,23.6545525,72.0323486,51.2586327,20.7737141,
398,69.4919052,52.1193161,17.3725929,40.1996078,74.2016296,-34.0020218,53.2215195,52.6812897,0.5402312,67.5709763,48.7675819,18.8033924,51.2776947,52.7169762,-1.4392816,68.5324097,49.1957779,19.3366299,73.1832275,51.1210823,22.0621471,72.7423401,50.1908264,22.5515118,
399,69.2610626,51.8996773,17.3613873,40.0580597,74.6461105,-34.588047,51.7746887,53.5566483,-1.781962,68.664772,47.7762032,20.888567,52.563549,51.845314,0.718238,69.5761337,47.8439369,21.7321987,74.2534637,50.8597031,23.3937588,70.8322525,51.5791512,19.2530994,
400,69.4542694,52.4607468,16.9935246,40.4607201,74.4838333,-34.0231171,52.7346535,52.4968567,0.2377953,68.0662003,48.2349434,19.831255,50.857872,53.3483734,-2.4905007,70.7576065,47.4833488,23.2742558,74.2663727,51.194355,23.0720196,72.5776749,51.7049866,20.8726845,
401,70.0165863,51.9078674,18.108717,40.2654915,74.5625153,-34.2970238,52.7752304,53.1534233,-0.3781922,68.2729416,48.369133,19.9038067,51.9145775,52.3719406,-0.4573635,69.3731384,48.6122627,20.7608795,73.628273,50.7785988,22.8496723,71.506134,51.1512337,20.3549004,
402,69.6327209,51.9062309,17.7264919,40.5705338,74.4395752,-33.8690453,53.4667587,52.2018127,1.264944,66.4118118,49.2347336,17.1770725,53.0158958,52.1999893,0.815906,69.1628571,48.6970062,20.4658546,73.3262939,51.5732155,21.7530823,72.3050003,51.4750175,20.8299828,
403,70.2982101,51.4817009,18.8165131,40.668148,74.400238,-33.73209,53.0265923,52.6646843,0.3619074,68.3600693,47.7902451,20.5698261,52.081707,52.392952,-0.3112431,68.9645767,48.5458107,20.4187679,73.1827087,50.7950287,22.3876781,72.8910141,50.2804489,22.6105633,
404,69.7481461,52.0160484,17.7320957,40.9853935,74.2723846,-33.2869911,53.3926468,52.5171623,0.8754817,67.3825607,48.6192093,18.7633457,52.7562904,52.3997726,0.3565164,70.0032425,47.8961182,22.1071243,73.3262939,51.5732155,21.7530823,70.9196167,52.0333328,18.8862858,
405,69.8696442,52.1302147,17.7394314,40.4607201,74.4838333,-34.0231171,52.758152,52.7728691,-0.0147138,67.6682434,48.8371391,18.8311081,52.3298378,52.7551613,-0.4253226,69.2562103,49.0196342,20.2365723,72.8745422,51.5853462,21.2891922,71.5816574,51.9364586,19.6452007,
406,70.157402,51.6947823,18.462616,40.8877792,74.3117294,-33.4239464,52.4894142,52.9763298,-0.4869174,67.1873322,48.6978874,18.4894409,52.0758171,52.5788498,-0.5030313,69.7864151,47.7591934,22.0272236,73.7842484,51.5653839,22.2188663,71.9963074,51.9392815,20.0570259,
407,69.6327209,51.9062309,17.7264919,40.8877792,74.3117294,-33.4239464,52.9527817,52.8847542,0.0680276,67.6750565,48.6100883,19.0649681,52.9228325,52.0539742,0.8688586,69.8936386,49.0142403,20.8793964,75.533165,50.01091,25.5222549,72.3050003,51.4750175,20.8299828,
408,69.7481461,52.0160484,17.7320957,40.668148,74.400238,-33.73209,52.5800018,53.2321014,-0.6520985,68.0662003,48.2349434,19.831255,53.5162811,51.6380806,1.8782007,68.5443878,48.9462547,19.5981312,73.3262939,51.5732155,21.7530823,71.1162491,51.1520271,19.9642181,
409,70.9627151,51.3702354,19.5924778,40.4607201,74.4838333,-34.0231171,52.5864258,53.1275558,-0.5411292,67.4798279,48.6887665,18.7910633,52.8299179,52.0030556,0.8268648,69.045929,49.1043816,19.9415474,73.924614,50.3329048,23.5917091,71.6120453,51.5911484,20.0208988,
410,70.2850266,51.7996864,18.4853382,40.0043793,74.280304,-34.2759285,51.5248756,53.5553703,-2.0304947,68.0662003,48.2349434,19.831255,51.834034,52.31604,-0.4820029,68.3969345,49.617424,18.7795086,74.2534637,50.8597031,23.3937588,71.4880905,51.4779739,20.0101204,
411,70.6942749,51.4784203,19.2158566,39.4601746,74.8870621,-35.4268875,53.1242065,52.6253471,0.4988605,68.3715897,48.0031166,20.3684711,51.9145775,52.3719406,-0.4573635,70.671936,48.0888367,22.5830956,72.8565369,51.9392548,20.917284,72.1805191,51.0357857,21.1447334,
412,70.2982101,51.4817009,18.8165131,40.1019936,74.2409668,-34.1389732,52.7575531,52.9634323,-0.2058787,67.5709763,48.7675819,18.8033924,51.8274269,52.0536118,-0.2261866,68.9405975,49.0312767,19.9093266,73.3262939,51.5732155,21.7530823,71.8661575,51.821804,20.0443516,
413,69.7481461,52.0160484,17.7320957,39.8506317,74.7297058,-34.8790741,52.6718407,53.0931358,-0.4212952,67.6750565,48.6100883,19.0649681,51.9086876,52.5578384,-0.6491517,68.5563889,48.7103157,19.8460712,73.1832275,51.1210823,22.0621471,72.4645157,50.6086655,21.8558521,
414,69.8889618,51.8029671,18.0859947,39.6554031,74.8083801,-35.1529808,52.3060875,53.1453743,-0.839287,68.1641541,48.0867119,20.077446,50.4801559,53.2219124,-2.7417538,68.4960861,49.6998138,18.7962704,74.420723,50.9622269,23.4584961,71.1162491,51.1520271,19.9642181,
415,69.8889618,51.8029671,18.0859947,39.223465,74.5950165,-35.3715515,52.0495491,53.3439217,-1.2943715,66.9852905,49.0036163,17.9816723,51.5926895,52.3249397,-0.7322499,69.3731384,48.6122627,20.7608795,74.2467422,50.5293503,23.7173939,71.5180054,50.8337822,20.6842213,
416,70.4258347,51.5866013,18.8392372,39.6554031,74.8083801,-35.1529808,52.225853,53.469986,-1.2441362,68.0662003,48.2349434,19.831255,52.4090729,51.9959297,0.413143,69.1624908,48.4660492,20.6964378,74.7294159,50.497963,24.231451,71.1551819,52.2782593,18.8769245,
417,69.3449707,52.3416634,17.0033073,39.9604454,74.6854477,-34.7250023,52.8438683,52.6431656,0.2007027,68.2736282,48.1513481,20.1222801,52.1556435,52.1864281,-0.0307875,70.343956,48.1054649,22.2384949,74.3949127,50.3065033,24.0884132,73.0340118,50.6918221,22.3421898,
418,69.7481461,52.0160484,17.7320957,40.5705338,74.4395752,-33.8690453,53.23312,52.8669357,0.3661854,66.9921036,48.7765656,18.2155342,50.8637619,53.1624756,-2.2987125,68.7542953,48.6305542,20.1237411,73.0288849,51.3532143,21.6756687,72.1805191,51.0357857,21.1447334,
419,69.9143524,51.4800644,18.434288,40.7779655,74.3559799,-33.5780182,52.5867271,53.0322723,-0.4455467,67.870285,48.5314064,19.3388748,51.9086876,52.5578384,-0.6491517,69.1744919,48.2301102,20.944376,75.0257568,50.052269,24.9734898,71.2159653,51.5876427,19.6283226,
420,69.3449707,52.3416634,17.0033073,40.4607201,74.4838333,-34.0231171,52.9408798,52.7943878,0.1464909,67.1873322,48.6978874,18.4894409,51.3573875,52.243042,-0.8856552,70.4492798,48.1785698,22.2707157,73.3257523,51.2335777,22.0921764,72.7495193,50.8064766,21.943037,
421,70.4065247,51.9138527,18.4926739,40.1019936,74.2409668,-34.1389732,52.6721382,52.9978523,-0.3257127,67.9696198,47.9476013,20.0220146,52.1619682,52.2722435,-0.1102748,69.4664917,48.9348907,20.5315971,73.6349869,51.1089516,22.5260372,71.506134,51.1512337,20.3549004,
422,69.7735367,51.6931458,18.0803909,40.668148,74.400238,-33.73209,53.1239052,52.7206268,0.4032781,66.9655457,49.4669838,17.4985638,51.667778,52.8384514,-1.1706741,70.7386932,47.2666664,23.4720249,73.1714096,51.4657097,21.705698,72.0503922,50.9318962,21.1184959,
423,70.0297775,51.5898819,18.4398918,41.095211,74.2281342,-33.1329193,52.9527817,52.8847542,0.0680276,67.1873322,48.6978874,18.4894409,51.7542114,52.7084579,-0.9542466,69.1675949,47.7910728,21.3765221,72.720192,51.8174782,20.9027138,71.33992,51.7008171,19.639101,
424,70.2850266,51.7996864,18.4853382,41.2050247,74.183876,-32.9788475,53.9423256,52.1053162,1.8370081,67.7737045,48.2440681,19.5296326,52.6567459,52.0728455,0.5839027,70.4172592,47.5049591,22.9123001,71.8419647,52.1714134,19.6705494,71.2340088,51.2609024,19.9731026,
425,70.2982101,51.4817009,18.8165131,41.2050247,74.183876,-32.9788475,52.6721382,52.9978523,-0.3257127,67.6764297,48.1745148,19.5019169,51.8204231,51.5466461,0.2737776,68.7542953,48.6305542,20.1237411,70.8403168,52.7518082,18.0885105,72.3339081,50.2058907,22.1280174,
426,69.6712646,51.2789536,18.3923073,41.2367554,73.7836456,-32.5468941,53.3633232,52.1551361,1.2081864,67.6709976,47.965992,19.7050037,52.6436806,51.6430893,1.000589,68.7542953,48.6305542,20.1237411,73.0345383,51.0178757,22.0166588,70.7956619,51.9201584,18.8755054,
427,70.7074661,51.1604347,19.5470333,41.3343697,73.7443085,-32.4099388,52.8438683,52.6431656,0.2007027,68.077713,48.4478111,19.6299,53.1934357,50.9933128,2.2001202,69.045929,49.1043816,19.9415474,74.704155,50.1818771,24.522274,73.2984848,49.6676216,23.6308651,
428,69.9143524,51.4800644,18.434288,40.8877792,74.3117294,-33.4239464,54.4004707,51.7371597,2.6633136,68.4519119,47.6512794,20.8006306,52.6436806,51.6430893,1.000589,69.4711838,48.0017891,21.4693928,75.136322,49.5319099,25.6044102,71.3641357,51.3647957,19.9993401,
429,70.0297775,51.5898819,18.4398918,41.3148422,74.1396179,-32.8247757,53.2215195,52.6812897,0.5402312,67.578476,48.3227463,19.2557278,52.2967911,51.4430313,0.853759,69.2732697,48.0815468,21.1917229,72.7320175,51.4728546,21.2591629,71.3641357,51.3647957,19.9993401,
430,70.0297775,51.5898819,18.4398918,41.9615364,73.8789978,-31.9174614,54.7232399,51.7906036,2.9326334,67.578476,48.3227463,19.2557278,53.2800217,50.9584198,2.3216014,68.5563889,48.7103157,19.8460712,73.3180084,50.2647018,23.0533085,71.506134,51.1512337,20.3549004,
431,69.6327209,51.9062309,17.7264919,41.8517189,73.9232559,-32.0715332,54.5280113,51.8692818,2.6587269,67.102951,48.405632,18.6973171,53.6755829,50.6358757,3.0397086,68.4692535,48.405571,20.0636845,72.8745422,51.5853462,21.2891922,72.1976013,50.1112862,22.086319,
432,70.7084122,50.8609772,19.847435,42.0713501,73.8347397,-31.7633896,54.175621,51.5490913,2.6265295,67.3825607,48.6192093,18.7633457,52.3962898,51.7427902,0.6535002,68.5742111,48.2477226,20.3264885,73.1832275,51.1210823,22.0621471,72.3343887,50.5047722,21.8296146,
433,69.2610626,51.8996773,17.3613873,41.9615364,73.8789978,-31.9174614,54.0957298,51.7648125,2.3309176,67.6764297,48.1745148,19.5019169,52.965004,51.3368683,1.6281334,69.9839783,47.4620667,22.5219154,73.4728775,50.3586235,23.1142559,72.8915176,50.5929184,22.2985973,
434,68.8762131,52.2111092,16.6651058,41.6320877,74.0117645,-32.3796768,53.7293739,52.0076141,1.7217607,67.1880188,48.4801025,18.7079144,53.0201302,50.9815903,2.0385408,68.6671677,48.3258095,20.3413544,73.0288849,51.3532143,21.6756687,70.4547272,51.5749588,18.8797722,
435,69.235672,52.22258,17.013092,42.0713501,73.8347397,-31.7633896,54.4681625,51.5263557,2.9418066,68.1648483,47.8689232,20.2959194,52.3899651,51.6569786,0.7329875,68.9700317,48.0882034,20.8818302,71.3095322,52.0461273,19.2634029,73.3113327,49.9615173,23.3498154,
436,69.0170288,51.998024,17.0190029,41.8517189,73.9232559,-32.0715332,54.1256523,51.9362755,2.1893778,66.9921036,48.7765656,18.2155342,54.4120979,50.6721153,3.7399852,68.2655182,48.7119827,19.5535336,72.23246,52.5510139,19.6814442,72.4531708,51.2521706,21.2010002,
